skip 
 Z (m)	  Az (m2)	 Tz (deg C)	  Cz(mg/m3)	  POCz (mg/m3)	  TPz (mg/m3)	 DOPz (mg/m3)	    Chlaz (mg/m3)	   DOCz (mg/m3)	    TPz_sed (mg/m3)	 Chlaz_sed (mg/m3)	   Fvol_IM (m3/m3, dry w.)	 Hice (m)	 Hsnow (m)	 O2z (mg/m3)	 DICz (mg/m3)	 NO3z (mg/m3)	 NH4z (mg/m3)	 SO4z (mg/m3)	 HSz (mg/m3)	 H2Sz (mg/m3)	 Fe2z (mg/m3)	 Ca2z (mg/m3)	 pHz (mg/m3)	 CH4aqz (mg/m3)	 Fe3z (mg/m3)	 Al3z (mg/m3)	 SiO4z (mg/m3)	 SiO2z (mg/m3)	 CH4gz (mg/m3)	 POPz (mg/m3)
0	2.38e+07	2.7558	3.4851	5729.4	27.846	5.5216	0.0065461	6.5659	0	0	0	0	0	12226	72836	2101	86.234	4000	3.4238e-05	0	0.00010103	75000	7	-0	11862	2736	0	0	0.0017528	19.075
0.5	2.27e+07	2.7558	3.4717	5729.4	27.846	5.5216	0.0064899	6.5659	0	0	0	0	0	12224	72835	2101.4	86.235	4000	3.4241e-05	0	0.00010119	75000	7	-0	11862	2736	0	0	0.0017528	19.075
1	2.16e+07	2.7558	3.4422	5729.4	27.846	5.5216	0.006459	6.5659	0	0	0	0	0	12221	72835	2102.4	86.235	4000	3.4246e-05	0	0.00010154	75000	7	-0	11862	2736	0	0	0.0017528	19.075
1.5	2.05e+07	2.7558	3.3787	5729.4	27.846	5.5216	0.0064419	6.5659	0	0	0	0	0	12214	72834	2104.4	86.235	4000	3.4258e-05	0	0.00010228	75000	7	-0	11862	2736	0	0	0.0017528	19.075
2	1.93e+07	2.7558	3.3321	5729.4	27.846	5.5216	0.0064324	6.5659	0	0	0	0	0	12209	72833	2105.9	86.236	4000	3.4267e-05	0	0.00010284	75000	7	-0	11862	2736	0	0	0.0017528	19.075
2.5	1.83e+07	2.7558	3.3065	5729.4	27.846	5.5216	0.0064272	6.5659	0	0	0	0	0	12206	72833	2106.7	86.236	4000	3.4271e-05	0	0.00010314	75000	7	-0	11862	2736	0	0	0.0017528	19.075
3	1.72e+07	2.7558	3.2924	5729.4	27.846	5.5216	0.0064243	6.5659	0	0	0	0	0	12205	72833	2107.2	86.236	4000	3.4274e-05	0	0.00010331	75000	7	-0	11862	2736	0	0	0.0017528	19.075
3.5	1.62e+07	2.7558	3.2846	5729.4	27.846	5.5216	0.0064227	6.5659	0	0	0	0	0	12204	72832	2107.4	86.236	4000	3.4275e-05	0	0.0001034	75000	7	-0	11862	2736	0	0	0.0017528	19.075
4	1.52e+07	2.7558	3.2803	5729.4	27.846	5.5216	0.0064218	6.5659	0	0	0	0	0	12203	72832	2107.6	86.236	4000	3.4276e-05	0	0.00010345	75000	7	-0	11862	2736	0	0	0.0017528	19.075
4.5	1.44e+07	2.7558	3.2779	5729.4	27.846	5.5216	0.0064213	6.5659	0	0	0	0	0	12203	72832	2107.6	86.236	4000	3.4277e-05	0	0.00010348	75000	7	-0	11862	2736	0	0	0.0017528	19.075
5	1.36e+07	2.7558	3.2766	5729.4	27.846	5.5216	0.006421	6.5659	0	0	0	0	0	12203	72832	2107.7	86.236	4000	3.4277e-05	0	0.0001035	75000	7	-0	11862	2736	0	0	0.0017528	19.075
5.5	1.3e+07	2.7558	3.2758	5729.4	27.846	5.5216	0.0064208	6.5659	0	0	0	0	0	12203	72832	2107.7	86.236	4000	3.4277e-05	0	0.0001035	75000	7	-0	11862	2736	0	0	0.0017528	19.075
6	1.23e+07	2.7558	3.2754	5729.4	27.846	5.5216	0.0064208	6.5659	0	0	0	0	0	12203	72832	2107.7	86.236	4000	3.4277e-05	0	0.00010351	75000	7	-0	11862	2736	0	0	0.0017528	19.075
6.5	1.17e+07	2.7558	3.2752	5729.4	27.846	5.5216	0.0064207	6.5659	0	0	0	0	0	12203	72832	2107.7	86.236	4000	3.4277e-05	0	0.00010351	75000	7	-0	11862	2736	0	0	0.0017528	19.075
7	1.11e+07	2.7558	3.2751	5729.4	27.846	5.5216	0.0064207	6.5659	0	0	0	0	0	12203	72832	2107.7	86.236	4000	3.4277e-05	0	0.00010351	75000	7	-0	11862	2736	0	0	0.0017528	19.075
7.5	1.05e+07	2.7558	3.275	5729.4	27.846	5.5216	0.0064207	6.5659	0	0	0	0	0	12203	72832	2107.7	86.236	4000	3.4277e-05	0	0.00010351	75000	7	-0	11862	2736	0	0	0.0017528	19.075
8	9.97e+06	2.7558	3.275	5729.4	27.846	5.5216	0.0064207	6.5659	0	0	0	0	0	12203	72832	2107.7	86.236	4000	3.4277e-05	0	0.00010351	75000	7	-0	11862	2736	0	0	0.0017528	19.075
8.5	9.45e+06	2.7558	3.275	5729.4	27.846	5.5216	0.0064207	6.5659	0	0	0	0	0	12203	72832	2107.7	86.236	4000	3.4277e-05	0	0.00010351	75000	7	-0	11862	2736	0	0	0.0017528	19.075
9	8.93e+06	2.7558	3.2749	5729.4	27.846	5.5216	0.0064207	6.5659	0	0	0	0	0	12203	72832	2107.7	86.236	4000	3.4277e-05	0	0.00010351	75000	7	-0	11862	2736	0	0	0.0017528	19.075
9.5	8.45e+06	2.7558	3.2749	5729.4	27.846	5.5216	0.0064207	6.5659	0	0	0	0	0	12203	72832	2107.7	86.236	4000	3.4277e-05	0	0.00010351	75000	7	-0	11862	2736	0	0	0.0017528	19.075
10	7.96e+06	2.7558	3.2749	5729.4	27.846	5.5216	0.0064207	6.5659	0	0	0	0	0	12203	72832	2107.7	86.236	4000	3.4277e-05	0	0.00010351	75000	7	-0	11862	2736	0	0	0.0017528	19.075
10.5	7.55e+06	2.7558	3.2749	5729.4	27.846	5.5216	0.0064207	6.5659	0	0	0	0	0	12203	72832	2107.7	86.236	4000	3.4277e-05	0	0.00010351	75000	7	-0	11862	2736	0	0	0.0017528	19.075
11	7.14e+06	2.7558	3.2749	5729.4	27.846	5.5216	0.0064207	6.5659	0	0	0	0	0	12203	72832	2107.7	86.236	4000	3.4277e-05	0	0.00010351	75000	7	-0	11862	2736	0	0	0.0017528	19.075
11.5	6.78e+06	2.7558	3.2749	5729.4	27.846	5.5216	0.0064207	6.5659	0	0	0	0	0	12203	72832	2107.7	86.236	4000	3.4277e-05	0	0.00010351	75000	7	-0	11862	2736	0	0	0.0017528	19.075
12	6.41e+06	2.7558	3.2749	5729.4	27.846	5.5216	0.0064207	6.5659	0	0	0	0	0	12203	72832	2107.7	86.236	4000	3.4277e-05	0	0.00010351	75000	7	-0	11862	2736	0	0	0.0017528	19.075
12.5	6.05e+06	2.7558	3.2749	5729.4	27.846	5.5216	0.0064207	6.5659	0	0	0	0	0	12203	72832	2107.7	86.236	4000	3.4277e-05	0	0.00010351	75000	7	-0	11862	2736	0	0	0.0017528	19.075
13	5.69e+06	2.7558	3.2749	5729.4	27.846	5.5216	0.0064207	6.5659	0	0	0	0	0	12203	72832	2107.7	86.236	4000	3.4277e-05	0	0.00010351	75000	7	-0	11862	2736	0	0	0.0017528	19.075
13.5	5.37e+06	2.7558	3.2749	5729.4	27.846	5.5216	0.0064207	6.5659	0	0	0	0	0	12203	72832	2107.7	86.236	4000	3.4277e-05	0	0.00010351	75000	7	-0	11862	2736	0	0	0.0017528	19.075
14	5.05e+06	2.7558	3.2749	5729.4	27.846	5.5216	0.0064207	6.5659	0	0	0	0	0	12203	72832	2107.7	86.236	4000	3.4277e-05	0	0.00010351	75000	7	-0	11862	2736	0	0	0.0017528	19.075
14.5	4.76e+06	2.7558	3.2749	5729.4	27.846	5.5216	0.0064207	6.5659	0	0	0	0	0	12203	72832	2107.7	86.236	4000	3.4277e-05	0	0.00010351	75000	7	-0	11862	2736	0	0	0.0017528	19.075
15	4.46e+06	2.7558	3.2749	5729.4	27.846	5.5216	0.0064207	6.5659	0	0	0	0	0	12203	72832	2107.7	86.236	4000	3.4277e-05	0	0.00010351	75000	7	-0	11862	2736	0	0	0.0017528	19.075
15.5	4.18e+06	2.7558	3.2749	5729.4	27.846	5.5216	0.0064207	6.5659	0	0	0	0	0	12203	72832	2107.7	86.236	4000	3.4277e-05	0	0.00010351	75000	7	-0	11862	2736	0	0	0.0017528	19.075
16	3.9e+06	2.7558	3.2749	5729.4	27.846	5.5216	0.0064207	6.5659	0	0	0	0	0	12203	72832	2107.7	86.236	4000	3.4277e-05	0	0.00010351	75000	7	-0	11862	2736	0	0	0.0017528	19.075
16.5	3.67e+06	2.7558	3.2749	5729.4	27.846	5.5216	0.0064207	6.5659	0	0	0	0	0	12203	72832	2107.7	86.236	4000	3.4277e-05	0	0.00010351	75000	7	-0	11862	2736	0	0	0.0017528	19.075
17	3.43e+06	2.7558	3.2749	5729.4	27.846	5.5216	0.0064207	6.5659	0	0	0	0	0	12203	72832	2107.7	86.236	4000	3.4277e-05	0	0.00010351	75000	7	-0	11862	2736	0	0	0.0017528	19.075
17.5	3.23e+06	2.7558	3.2749	5729.4	27.846	5.5216	0.0064207	6.5659	0	0	0	0	0	12203	72832	2107.7	86.236	4000	3.4277e-05	0	0.00010351	75000	7	-0	11862	2736	0	0	0.0017528	19.075
18	3.03e+06	2.7558	3.2749	5729.4	27.846	5.5216	0.0064207	6.5659	0	0	0	0	0	12203	72832	2107.7	86.236	4000	3.4277e-05	0	0.00010351	75000	7	-0	11862	2736	0	0	0.0017528	19.075
18.5	2.84e+06	2.7558	3.2749	5729.4	27.846	5.5216	0.0064207	6.5659	0	0	0	0	0	12203	72832	2107.7	86.236	4000	3.4277e-05	0	0.00010351	75000	7	-0	11862	2736	0	0	0.0017528	19.075
19	2.65e+06	2.7558	3.2749	5729.4	27.846	5.5216	0.0064207	6.5659	0	0	0	0	0	12203	72832	2107.7	86.236	4000	3.4277e-05	0	0.00010351	75000	7	-0	11862	2736	0	0	0.0017528	19.075
19.5	2.49e+06	2.7558	3.2749	5729.4	27.846	5.5216	0.0064207	6.5659	0	0	0	0	0	12203	72832	2107.7	86.236	4000	3.4277e-05	0	0.00010351	75000	7	-0	11862	2736	0	0	0.0017528	19.075
20	2.32e+06	2.7558	3.2749	5729.4	27.846	5.5216	0.0064207	6.5659	0	0	0	0	0	12203	72832	2107.7	86.236	4000	3.4277e-05	0	0.00010351	75000	7	-0	11862	2736	0	0	0.0017528	19.075
20.5	2.18e+06	2.7558	3.2749	5729.4	27.846	5.5216	0.0064207	6.5659	0	0	0	0	0	12203	72832	2107.7	86.236	4000	3.4277e-05	0	0.00010351	75000	7	-0	11862	2736	0	0	0.0017528	19.075
21	2.04e+06	2.7558	3.2749	5729.4	27.846	5.5216	0.0064207	6.5659	0	0	0	0	0	12203	72832	2107.7	86.236	4000	3.4277e-05	0	0.00010351	75000	7	-0	11862	2736	0	0	0.0017528	19.075
21.5	1.91e+06	2.7558	3.2749	5729.4	27.846	5.5216	0.0064207	6.5659	0	0	0	0	0	12203	72832	2107.7	86.236	4000	3.4277e-05	0	0.00010351	75000	7	-0	11862	2736	0	0	0.0017528	19.075
22	1.78e+06	2.7558	3.2749	5729.4	27.846	5.5216	0.0064207	6.5659	0	0	0	0	0	12203	72832	2107.7	86.236	4000	3.4277e-05	0	0.00010351	75000	7	-0	11862	2736	0	0	0.0017528	19.075
22.5	1.68e+06	2.7558	3.2749	5729.4	27.846	5.5216	0.0064207	6.5659	0	0	0	0	0	12203	72832	2107.7	86.236	4000	3.4277e-05	0	0.00010351	75000	7	-0	11862	2736	0	0	0.0017528	19.075
23	1.57e+06	2.7558	3.2749	5729.4	27.846	5.5216	0.0064207	6.5659	0	0	0	0	0	12203	72832	2107.7	86.236	4000	3.4277e-05	0	0.00010351	75000	7	-0	11862	2736	0	0	0.0017528	19.075
23.5	1.48e+06	2.7558	3.2749	5729.4	27.846	5.5216	0.0064207	6.5659	0	0	0	0	0	12203	72832	2107.7	86.236	4000	3.4277e-05	0	0.00010351	75000	7	-0	11862	2736	0	0	0.0017528	19.075
24	1.38e+06	2.7558	3.2749	5729.4	27.846	5.5216	0.0064207	6.5659	0	0	0	0	0	12203	72832	2107.7	86.236	4000	3.4277e-05	0	0.00010351	75000	7	-0	11862	2736	0	0	0.0017528	19.075
24.5	1.29e+06	2.7558	3.2749	5729.4	27.846	5.5216	0.0064207	6.5659	0	0	0	0	0	12203	72832	2107.7	86.236	4000	3.4277e-05	0	0.00010351	75000	7	-0	11862	2736	0	0	0.0017528	19.075
25	1.19e+06	2.7558	3.2749	5729.4	27.846	5.5216	0.0064207	6.5659	0	0	0	0	0	12203	72832	2107.7	86.236	4000	3.4277e-05	0	0.00010351	75000	7	-0	11862	2736	0	0	0.0017528	19.075
25.5	1.11e+06	2.7558	3.2749	5729.4	27.846	5.5216	0.0064207	6.5659	0	0	0	0	0	12203	72832	2107.7	86.236	4000	3.4277e-05	0	0.00010351	75000	7	-0	11862	2736	0	0	0.0017528	19.075
26	1.03e+06	2.7558	3.2749	5729.4	27.846	5.5216	0.0064207	6.5659	0	0	0	0	0	12203	72832	2107.7	86.236	4000	3.4277e-05	0	0.00010351	75000	7	-0	11862	2736	0	0	0.0017528	19.075
26.5	9.59e+05	2.7558	3.2749	5729.4	27.846	5.5216	0.0064207	6.5659	0	0	0	0	0	12203	72832	2107.7	86.236	4000	3.4277e-05	0	0.00010351	75000	7	-0	11862	2736	0	0	0.0017528	19.075
27	8.88e+05	2.7558	3.2749	5729.4	27.846	5.5216	0.0064207	6.5659	0	0	0	0	0	12203	72832	2107.7	86.236	4000	3.4277e-05	0	0.00010351	75000	7	-0	11862	2736	0	0	0.0017528	19.075
27.5	8.2e+05	2.7558	3.2749	5729.4	27.846	5.5216	0.0064207	6.5659	0	0	0	0	0	12203	72832	2107.7	86.236	4000	3.4277e-05	0	0.00010351	75000	7	-0	11862	2736	0	0	0.0017528	19.075
28	7.52e+05	2.7558	3.2749	5729.4	27.846	5.5216	0.0064207	6.5659	0	0	0	0	0	12203	72832	2107.7	86.236	4000	3.4277e-05	0	0.00010351	75000	7	-0	11862	2736	0	0	0.0017528	19.075
28.5	6.91e+05	2.7558	3.2749	5729.4	27.846	5.5216	0.0064207	6.5659	0	0	0	0	0	12203	72832	2107.7	86.236	4000	3.4277e-05	0	0.00010351	75000	7	-0	11862	2736	0	0	0.0017528	19.075
29	6.29e+05	2.7558	3.2749	5729.4	27.846	5.5216	0.0064207	6.5659	0	0	0	0	0	12203	72832	2107.7	86.236	4000	3.4277e-05	0	0.00010351	75000	7	-0	11862	2736	0	0	0.0017528	19.075
29.5	5.77e+05	2.7558	3.2749	5729.4	27.846	5.5216	0.0064207	6.5659	0	0	0	0	0	12203	72832	2107.7	86.236	4000	3.4277e-05	0	0.00010351	75000	7	-0	11862	2736	0	0	0.0017528	19.075
30	5.24e+05	2.7558	3.2749	5729.4	27.846	5.5216	0.0064207	6.5659	0	0	0	0	0	12203	72832	2107.7	86.236	4000	3.4277e-05	0	0.00010351	75000	7	-0	11862	2736	0	0	0.0017528	19.075
30.5	4.82e+05	2.7558	3.2749	5729.4	27.846	5.5216	0.0064207	6.5659	0	0	0	0	0	12203	72832	2107.7	86.236	4000	3.4277e-05	0	0.00010351	75000	7	-0	11862	2736	0	0	0.0017528	19.075
31	4.4e+05	2.7558	3.2749	5729.4	27.846	5.5216	0.0064207	6.5659	0	0	0	0	0	12203	72832	2107.7	86.236	4000	3.4277e-05	0	0.00010351	75000	7	-0	11862	2736	0	0	0.0017528	19.075
31.5	4.04e+05	2.7558	3.2749	5729.4	27.846	5.5216	0.0064207	6.5659	0	0	0	0	0	12203	72832	2107.7	86.236	4000	3.4277e-05	0	0.00010351	75000	7	-0	11862	2736	0	0	0.0017528	19.075
32	3.67e+05	2.7558	3.2749	5729.4	27.846	5.5216	0.0064207	6.5659	0	0	0	0	0	12203	72832	2107.7	86.236	4000	3.4277e-05	0	0.00010351	75000	7	-0	11862	2736	0	0	0.0017528	19.075
32.5	3.33e+05	2.7558	3.2749	5729.4	27.846	5.5216	0.0064207	6.5659	0	0	0	0	0	12203	72832	2107.7	86.236	4000	3.4277e-05	0	0.00010351	75000	7	-0	11862	2736	0	0	0.0017528	19.075
33	2.98e+05	2.7558	3.2749	5729.4	27.846	5.5216	0.0064207	6.5659	0	0	0	0	0	12203	72832	2107.7	86.236	4000	3.4277e-05	0	0.00010351	75000	7	-0	11862	2736	0	0	0.0017528	19.075
33.5	2.67e+05	2.7558	3.2749	5729.4	27.846	5.5216	0.0064207	6.5659	0	0	0	0	0	12203	72832	2107.7	86.236	4000	3.4277e-05	0	0.00010351	75000	7	-0	11862	2736	0	0	0.0017528	19.075
34	2.36e+05	2.7558	3.2749	5729.4	27.846	5.5216	0.0064207	6.5659	0	0	0	0	0	12203	72832	2107.7	86.236	4000	3.4277e-05	0	0.00010351	75000	7	-0	11862	2736	0	0	0.0017528	19.075
34.5	2.07e+05	2.7558	3.2749	5729.4	27.846	5.5216	0.0064207	6.5659	0	0	0	0	0	12203	72832	2107.7	86.236	4000	3.4277e-05	0	0.00010351	75000	7	-0	11862	2736	0	0	0.0017528	19.075
35	1.77e+05	2.7558	3.2749	5729.4	27.846	5.5216	0.0064207	6.5659	0	0	0	0	0	12203	72832	2107.7	86.236	4000	3.4277e-05	0	0.00010351	75000	7	-0	11862	2736	0	0	0.0017528	19.075
35.5	1.52e+05	2.7558	3.2749	5729.4	27.846	5.5216	0.0064207	6.5659	0	0	0	0	0	12203	72832	2107.7	86.236	4000	3.4277e-05	0	0.00010351	75000	7	-0	11862	2736	0	0	0.0017528	19.075
36	1.27e+05	2.7558	3.2749	5729.4	27.846	5.5216	0.0064207	6.5659	0	0	0	0	0	12203	72832	2107.7	86.236	4000	3.4277e-05	0	0.00010351	75000	7	-0	11862	2736	0	0	0.0017528	19.075
36.5	1.06e+05	2.7558	3.2749	5729.4	27.846	5.5216	0.0064207	6.5659	0	0	0	0	0	12203	72832	2107.7	86.236	4000	3.4277e-05	0	0.00010351	75000	7	-0	11862	2736	0	0	0.0017528	19.075
37	85250	2.7558	3.2749	5729.4	27.846	5.5216	0.0064207	6.5659	0	0	0	0	0	12203	72832	2107.7	86.236	4000	3.4277e-05	0	0.00010351	75000	7	-0	11862	2736	0	0	0.0017528	19.075
37.5	66375	2.7558	3.2749	5729.4	27.846	5.5216	0.0064207	6.5659	0	0	0	0	0	12203	72832	2107.7	86.236	4000	3.4277e-05	0	0.00010351	75000	7	-0	11862	2736	0	0	0.0017528	19.075
38	47500	2.7558	3.2749	5729.4	27.846	5.5216	0.0064207	6.5659	0	0	0	0	0	12203	72832	2107.7	86.236	4000	3.4277e-05	0	0.00010351	75000	7	-0	11862	2736	0	0	0.0017528	19.075
38.5	35000	2.7558	3.2749	5729.4	27.846	5.5216	0.0064207	6.5659	0	0	0	0	0	12203	72832	2107.7	86.236	4000	3.4277e-05	0	0.00010351	75000	7	-0	11862	2736	0	0	0.0017528	19.075
39	22500	2.7558	3.2749	5729.4	27.846	5.5216	0.0064207	6.5659	0	0	0	0	0	12203	72832	2107.7	86.236	4000	3.4277e-05	0	0.00010351	75000	7	-0	11862	2736	0	0	0.0017528	19.075
39.5	16250	2.7558	3.2749	5729.4	27.846	5.5216	0.0064207	6.5659	0	0	0	0	0	12203	72832	2107.7	86.236	4000	3.4277e-05	0	0.00010351	75000	7	-0	11862	2736	0	0	0.0017528	19.075
40	10000	2.7558	3.2749	5729.4	27.846	5.5216	0.0064207	6.5659	0	0	0	0	0	12203	72832	2107.7	86.236	4000	3.4277e-05	0	0.00010351	75000	7	-0	11862	2736	0	0	0.0017528	19.075
40.5	5000	2.7558	3.2749	5729.4	31.382	5.5159	0.0064207	6.561	0	0	0	0	0	11946	73361	1950	98.283	4000	3.4277e-05	0	3.3911	75000	7	0.084279	11862	2736	0	0	171.04	19.075
41	0	2.7558	3.2749	5729.4	31.382	5.5159	0.0064207	6.561	0	0	0	0	0	11946	73361	1950	98.283	4000	3.4277e-05	0	3.3911	75000	7	0.084279	11862	2736	0	0	171.04	19.075
