skip 
 Z (m)	  Az (m2)	 Tz (deg C)	  Cz(mg/m3)	  POCz (mg/m3)	  TPz (mg/m3)	 DOPz (mg/m3)	    Chlaz (mg/m3)	   DOCz (mg/m3)	    TPz_sed (mg/m3)	 Chlaz_sed (mg/m3)	   Fvol_IM (m3/m3, dry w.)	 Hice (m)	 Hsnow (m)	 O2z (mg/m3)	 DICz (mg/m3)	 NO3z (mg/m3)	 NH4z (mg/m3)	 SO4z (mg/m3)	 HSz (mg/m3)	 H2Sz (mg/m3)	 Fe2z (mg/m3)	 Ca2z (mg/m3)	 pHz (mg/m3)	 CH4aqz (mg/m3)	 Fe3z (mg/m3)	 Al3z (mg/m3)	 FeSz (mg/m3)	 CaCO3z (mg/m3)	 CH4gz (mg/m3)	 POPz (mg/m3)
0	2.38e+07	0	0.090989	1087.7	27.7	8.4337	0.13574	3.9162	0	0	0	0	0	11653	18456	80140	48.411	1.1151	1.1491e-13	0	1.5046e-12	57.198	7	0	695.83	0.010445	0	193.17	0	8.4325
0.5	2.27e+07	0.23153	0.065031	1192	27.199	7.9251	0.13316	3.3734	0	0	0	0	0	12248	20057	80105	52.362	1.2101	1.183e-13	0	2.3991e-12	57.818	7	0	1127.3	0.016926	0	225.99	0	8.872
1	2.16e+07	0.36262	0.055871	1372.9	27.632	7.7664	0.13629	3.1581	0	0	0	0	0	12395	20931	80092	54.247	1.2443	1.259e-13	0	3.5681e-12	58.053	7	0	1502.7	0.022566	0	269.6	0	10.197
1.5	2.05e+07	0.5692	0.05086	1573.3	28.242	7.6723	0.1387	2.9809	0	0	0	0	0	12345	21988	80085	55.957	1.2635	1.3619e-13	0	5.2039e-12	58.195	7	0	1894.6	0.028452	0	316	0	11.738
2	1.93e+07	0.92936	0.042386	1714.3	28.74	7.571	0.13274	2.8117	0	0	0	0	0	12173	23618	80075	57.877	1.2868	1.4656e-13	0	7.0427e-12	58.357	7	0	2246.8	0.033742	0	351.9	0	12.96
2.5	1.83e+07	1.2324	0.035273	1777	29.084	7.5179	0.12462	2.7077	0	0	0	0	0	12016	24836	80069	59.026	1.2989	1.5312e-13	0	8.4406e-12	58.441	7	0	2483.3	0.037295	0	371.53	0	13.626
3	1.72e+07	1.4632	0.030718	1802	29.304	7.492	0.1179	2.6488	0	0	0	0	0	11901	25723	80067	59.707	1.3044	1.5718e-13	0	9.3904e-12	58.48	7	0	2630.6	0.039509	0	381.81	0	13.968
3.5	1.62e+07	1.6641	0.027806	1812.8	29.443	7.4761	0.11257	2.6131	0	0	0	0	0	11810	26600	80065	60.203	1.3075	1.6017e-13	0	1.0074e-11	58.501	7	0	2724.2	0.040914	0	387.71	0	14.158
4	1.52e+07	1.8384	0.025844	1818.1	29.529	7.4641	0.10832	2.5901	0	0	0	0	0	11735	27460	80064	60.606	1.3096	1.6258e-13	0	1.0587e-11	58.516	7	0	2784.4	0.041819	0	391.37	0	14.271
4.5	1.44e+07	1.9895	0.024436	1821	29.582	7.4543	0.10494	2.5741	0	0	0	0	0	11675	28367	80063	60.941	1.3114	1.6456e-13	0	1.0983e-11	58.528	7	0	2824.2	0.042417	0	393.76	0	14.341
5	1.36e+07	2.1084	0.023427	1822.4	29.615	7.4463	0.1024	2.5626	0	0	0	0	0	11627	29171	80062	61.206	1.3127	1.6611e-13	0	1.1277e-11	58.537	7	0	2850.3	0.042809	0	395.34	0	14.385
5.5	1.3e+07	2.2185	0.022612	1823.1	29.637	7.4391	0.1003	2.5528	0	0	0	0	0	11585	30033	80061	61.443	1.314	1.6748e-13	0	1.1527e-11	58.546	7	0	2869.4	0.043096	0	396.48	0	14.414
6	1.23e+07	2.3162	0.021918	1823.3	29.652	7.4323	0.09851	2.5438	0	0	0	0	0	11547	30861	80061	61.658	1.3151	1.6871e-13	0	1.1744e-11	58.553	7	0	2884.4	0.043321	0	397.37	0	14.436
6.5	1.17e+07	2.4048	0.021319	1823.3	29.664	7.4261	0.096974	2.5355	0	0	0	0	0	11514	31715	80060	61.851	1.3162	1.6982e-13	0	1.1936e-11	58.561	7	0	2896.7	0.043506	0	398.08	0	14.452
7	1.11e+07	2.4833	0.020797	1823.1	29.673	7.4205	0.095648	2.5278	0	0	0	0	0	11484	32560	80060	62.025	1.3171	1.708e-13	0	1.2107e-11	58.567	7	0	2907.3	0.043664	0	398.69	0	14.465
7.5	1.05e+07	2.551	0.020341	1822.8	29.681	7.4154	0.094496	2.5205	0	0	0	0	0	11457	33393	80059	62.178	1.318	1.7167e-13	0	1.2257e-11	58.573	7	0	2916.5	0.043803	0	399.21	0	14.476
8	9.97e+06	2.6111	0.019942	1822.5	29.688	7.4109	0.093498	2.5136	0	0	0	0	0	11434	34225	80059	62.314	1.3188	1.7243e-13	0	1.2391e-11	58.578	7	0	2924.7	0.043926	0	399.67	0	14.485
8.5	9.45e+06	2.6636	0.019596	1822.2	29.694	7.4069	0.092633	2.5073	0	0	0	0	0	11414	35042	80058	62.432	1.3194	1.731e-13	0	1.251e-11	58.582	7	0	2932	0.044036	0	400.07	0	14.493
9	8.93e+06	2.7081	0.019295	1821.9	29.7	7.4035	0.091886	2.5014	0	0	0	0	0	11397	35861	80058	62.535	1.32	1.7367e-13	0	1.2613e-11	58.586	7	0	2938.6	0.044134	0	400.43	0	14.5
9.5	8.45e+06	2.7462	0.019036	1821.7	29.705	7.4005	0.091243	2.496	0	0	0	0	0	11382	36690	80058	62.623	1.3205	1.7416e-13	0	1.2703e-11	58.59	7	0	2944.4	0.044221	0	400.75	0	14.506
10	7.96e+06	2.7764	0.018813	1821.5	29.71	7.3979	0.090691	2.491	0	0	0	0	0	11369	37497	80057	62.699	1.321	1.7458e-13	0	1.278e-11	58.593	7	0	2949.5	0.044299	0	401.03	0	14.511
10.5	7.55e+06	2.8031	0.018623	1821.3	29.714	7.3957	0.09022	2.4864	0	0	0	0	0	11358	38300	80057	62.764	1.3214	1.7493e-13	0	1.2847e-11	58.595	7	0	2954	0.044367	0	401.29	0	14.516
11	7.14e+06	2.8255	0.01846	1821.2	29.718	7.3939	0.089817	2.4823	0	0	0	0	0	11348	39093	80057	62.82	1.3217	1.7524e-13	0	1.2904e-11	58.597	7	0	2958	0.044426	0	401.51	0	14.52
11.5	6.78e+06	2.8466	0.018322	1821.1	29.722	7.3923	0.089473	2.4785	0	0	0	0	0	11341	39888	80057	62.868	1.322	1.7551e-13	0	1.2956e-11	58.599	7	0	2961.4	0.044478	0	401.7	0	14.524
12	6.41e+06	2.8649	0.018204	1821	29.725	7.391	0.08918	2.4751	0	0	0	0	0	11334	40695	80057	62.91	1.3222	1.7574e-13	0	1.3e-11	58.601	7	0	2964.4	0.044523	0	401.87	0	14.528
12.5	6.05e+06	2.8806	0.018105	1821	29.728	7.3899	0.088931	2.4721	0	0	0	0	0	11328	41485	80057	62.945	1.3224	1.7594e-13	0	1.3038e-11	58.602	7	0	2967	0.044562	0	402.02	0	14.531
13	5.69e+06	2.8927	0.018022	1821	29.73	7.389	0.088722	2.4693	0	0	0	0	0	11324	42289	80056	62.975	1.3226	1.761e-13	0	1.307e-11	58.603	7	0	2969.3	0.044595	0	402.16	0	14.533
13.5	5.37e+06	2.9038	0.017952	1821	29.732	7.3882	0.088546	2.4669	0	0	0	0	0	11320	43061	80056	63	1.3227	1.7624e-13	0	1.3097e-11	58.604	7	0	2971.2	0.044624	0	402.27	0	14.536
14	5.05e+06	2.913	0.017893	1821	29.734	7.3875	0.088397	2.4647	0	0	0	0	0	11317	43866	80056	63.023	1.3229	1.7637e-13	0	1.312e-11	58.605	7	0	2972.8	0.044648	0	402.37	0	14.538
14.5	4.76e+06	2.9223	0.017844	1821	29.736	7.387	0.088271	2.4628	0	0	0	0	0	11314	44643	80056	63.042	1.323	1.7648e-13	0	1.3142e-11	58.605	7	0	2974.2	0.044669	0	402.45	0	14.54
15	4.46e+06	2.9294	0.017803	1821	29.737	7.3866	0.088166	2.461	0	0	0	0	0	11311	45417	80056	63.059	1.3231	1.7657e-13	0	1.3159e-11	58.606	7	0	2975.4	0.044687	0	402.53	0	14.541
15.5	4.18e+06	2.9349	0.017769	1821	29.739	7.3862	0.088079	2.4595	0	0	0	0	0	11310	46213	80056	63.074	1.3233	1.7664e-13	0	1.3173e-11	58.606	7	0	2976.4	0.044702	0	402.59	0	14.543
16	3.9e+06	2.9371	0.017741	1821.1	29.74	7.3859	0.08801	2.4582	0	0	0	0	0	11308	46995	80056	63.087	1.3234	1.767e-13	0	1.3183e-11	58.606	7	0	2977.2	0.044715	0	402.65	0	14.544
16.5	3.67e+06	2.9402	0.017719	1821.1	29.741	7.3857	0.087953	2.457	0	0	0	0	0	11307	47787	80055	63.1	1.3236	1.7675e-13	0	1.3192e-11	58.607	7	0	2977.9	0.044725	0	402.69	0	14.545
17	3.43e+06	2.9411	0.0177	1821.1	29.742	7.3855	0.087907	2.4559	0	0	0	0	0	11305	48579	80055	63.112	1.3238	1.7679e-13	0	1.3199e-11	58.607	7	0	2978.5	0.044735	0	402.73	0	14.546
17.5	3.23e+06	2.9437	0.017684	1821.2	29.743	7.3853	0.087867	2.455	0	0	0	0	0	11304	49392	80054	63.127	1.3241	1.7685e-13	0	1.3206e-11	58.607	7	0	2979	0.044742	0	402.77	0	14.547
18	3.03e+06	2.9463	0.01767	1821.2	29.744	7.3851	0.087831	2.4541	0	0	0	0	0	11304	50274	80054	63.145	1.3245	1.7691e-13	0	1.3213e-11	58.607	7	0	2979.5	0.044749	0	402.8	0	14.547
18.5	2.84e+06	2.9488	0.017657	1821.2	29.745	7.385	0.087796	2.4534	0	0	0	0	0	11303	51208	80053	63.169	1.3251	1.7698e-13	0	1.322e-11	58.607	7	0	2980	0.044756	0	402.83	0	14.548
19	2.65e+06	2.9494	0.017654	1821.2	29.745	7.385	0.087786	2.453	0	0	0	0	0	11302	51575	80052	63.179	1.3253	1.7701e-13	0	1.3222e-11	58.607	7	0	2980.1	0.044758	0	402.84	0	14.549
19.5	2.49e+06	2.9509	0.017644	1821.3	29.747	7.3849	0.087761	2.4524	0	0	0	0	0	11301	52755	80050	63.224	1.3266	1.7712e-13	0	1.3227e-11	58.608	7	0	2980.5	0.044763	0	402.87	0	14.549
20	2.32e+06	2.9511	0.017641	1821.3	29.748	7.3849	0.087753	2.4521	0	0	0	0	0	11301	53213	80049	63.243	1.3271	1.7717e-13	0	1.3229e-11	58.608	7	0	2980.6	0.044764	0	402.87	0	14.549
20.5	2.18e+06	2.9514	0.017632	1821.3	29.751	7.3848	0.087732	2.4515	0	0	0	0	0	11300	54699	80045	63.327	1.3295	1.7736e-13	0	1.3235e-11	58.608	7	0	2980.9	0.044769	0	402.9	0	14.55
21	2.04e+06	2.9514	0.017631	1821.3	29.751	7.3848	0.087728	2.4514	0	0	0	0	0	11299	54996	80045	63.342	1.3299	1.7739e-13	0	1.3236e-11	58.608	7	0	2981	0.04477	0	402.9	0	14.55
21.5	1.91e+06	2.9514	0.01763	1821.3	29.751	7.3848	0.087726	2.4513	0	0	0	0	0	11299	55161	80044	63.347	1.3301	1.7741e-13	0	1.3236e-11	58.608	7	0	2981	0.044771	0	402.9	0	14.55
22	1.78e+06	2.9515	0.01763	1821.3	29.752	7.3847	0.087725	2.4512	0	0	0	0	0	11299	55444	80043	63.371	1.3308	1.7746e-13	0	1.3237e-11	58.608	7	0	2981.1	0.044771	0	402.9	0	14.55
22.5	1.68e+06	2.9523	0.017625	1821.3	29.757	7.3847	0.087711	2.4508	0	0	0	0	0	11297	56926	80035	63.525	1.3352	1.7781e-13	0	1.3245e-11	58.608	7	0	2981.3	0.044773	0	402.92	0	14.55
23	1.57e+06	2.953	0.017623	1821.3	29.759	7.3847	0.087707	2.4507	0	0	0	0	0	11297	57375	80033	63.579	1.3368	1.7793e-13	0	1.3248e-11	58.608	7	0	2981.3	0.044774	0	402.92	0	14.551
23.5	1.48e+06	2.9568	0.017619	1821.4	29.765	7.3846	0.087693	2.4504	0	0	0	0	0	11294	58473	80023	63.775	1.3424	1.7839e-13	0	1.3259e-11	58.608	7	0	2981.5	0.044775	0	402.93	0	14.551
24	1.38e+06	2.9602	0.017614	1821.4	29.772	7.3846	0.087678	2.4502	0	0	0	0	0	11292	59438	80011	64.007	1.3492	1.7892e-13	0	1.327e-11	58.608	7	0	2981.7	0.044776	0	402.93	0	14.551
24.5	1.29e+06	2.9649	0.01761	1821.3	29.78	7.3846	0.087661	2.45	0	0	0	0	0	11289	60403	79997	64.288	1.3573	1.7958e-13	0	1.3285e-11	58.608	7	0	2981.9	0.044777	0	402.94	0	14.551
25	1.19e+06	2.9659	0.017608	1821.3	29.784	7.3846	0.087657	2.4499	0	0	0	0	0	11288	60733	79992	64.395	1.3604	1.7984e-13	0	1.3289e-11	58.608	7	0	2981.9	0.044778	0	402.94	0	14.551
25.5	1.11e+06	2.9681	0.017605	1821.3	29.796	7.3846	0.087646	2.4498	0	0	0	0	0	11283	61659	79971	64.816	1.3726	1.809e-13	0	1.3306e-11	58.608	7	0	2982.1	0.044778	0	402.94	0	14.551
26	1.03e+06	2.9701	0.017602	1821.3	29.812	7.3845	0.087635	2.4497	0	0	0	0	0	11278	62515	79944	65.338	1.3877	1.8265e-13	0	1.3326e-11	58.608	7	0	2982.4	0.044778	0	402.94	0	14.551
26.5	9.59e+05	2.9742	0.017599	1821.3	29.832	7.3845	0.087622	2.4495	0	0	0	0	0	11271	63345	79911	66.011	1.4071	1.8692e-13	0	1.3352e-11	58.608	7	0	2982.6	0.044779	0	402.95	0	14.551
27	8.88e+05	2.9791	0.017595	1821.3	29.86	7.3845	0.087607	2.4495	0	0	0	0	0	11262	64154	79866	66.928	1.4334	2.0155e-13	0	1.3387e-11	58.608	7	0	2983	0.044779	0	402.95	0	14.551
27.5	8.2e+05	2.9846	0.01759	1821.3	29.899	7.3845	0.08759	2.4494	0	0	0	0	0	11249	64954	79800	68.278	1.4715	2.5147e-13	0	1.3436e-11	58.608	7	0	2983.5	0.044779	0	402.95	0	14.551
28	7.52e+05	2.9888	0.017586	1821.3	29.962	7.3845	0.087574	2.4493	0	0	0	0	0	11229	65791	79697	70.466	1.5321	3.6038e-13	0	1.3507e-11	58.608	7	0	2984.1	0.044779	0	402.95	0	14.551
28.5	6.91e+05	2.9934	0.017582	1821.2	30.07	7.3845	0.087558	2.4493	0	0	0	0	0	11196	66655	79519	74.366	1.6375	4.943e-13	0	1.3627e-11	58.608	7	0	2985.2	0.044779	0	402.95	0	14.551
29	6.29e+05	2.9952	0.017579	1821.2	30.275	7.3846	0.087546	2.4493	0	0	0	0	0	11134	67593	79185	81.924	1.8368	6.6151e-13	0	1.3845e-11	58.608	7	0	2987.6	0.04478	0	402.95	0	14.551
29.5	5.77e+05	2.998	0.017575	1821.2	30.665	7.3847	0.087532	2.4493	0	0	0	0	0	11022	68753	78552	96.758	2.2178	9.5205e-13	0	1.4273e-11	58.608	7	0	2993.9	0.04478	0	402.95	0	14.551
30	5.24e+05	2.9988	0.017574	1821.2	30.891	7.3848	0.087528	2.4494	0	0	0	0	0	10959	69296	78189	105.69	2.4389	1.5694e-12	0	1.452e-11	58.608	7	0	2997.9	0.04478	0	402.95	0	14.551
30.5	4.82e+05	3.0017	0.017571	1821.2	32.215	7.3853	0.087516	2.4497	0	0	0	0	0	10606	71666	76072	160.08	3.7455	1.7175e-08	0	3.5349	58.608	7	2.0647e-11	3024.1	0.04478	0	402.95	1.6067e-320	14.551
31	4.4e+05	3.0051	0.017567	1821.2	32.924	7.3856	0.0875	2.4498	0	0	0	0	0	10405	73120	74930	187.4	4.435	1.6083e-08	0	3.3099	58.608	7	1.9333e-11	3044.5	0.04478	0	402.95	1.5044e-320	14.551
31.5	4.04e+05	3.0126	0.017561	1821.2	33.497	7.3857	0.087478	2.4499	0	0	0	0	0	10244	74382	74010	209.47	4.9903	1.8095e-08	0	3.724	58.608	7	2.1751e-11	3062.8	0.04478	0	402.95	1.6927e-320	14.551
32	3.67e+05	3.0214	0.017554	1821.1	33.913	7.3859	0.08745	2.4499	0	0	0	0	0	10124	75483	73341	225.19	5.3912	1.8314e-08	0	3.7691	58.608	7	2.2015e-11	3077.9	0.04478	0	402.95	1.7129e-320	14.551
32.5	3.33e+05	3.0332	0.017545	1821.1	34.34	7.386	0.087415	2.4499	0	0	0	0	0	10003	76616	72655	241.77	5.805	2.0914e-08	0	4.3043	58.608	7	2.5141e-11	3091.9	0.04478	0	402.95	1.9565e-320	14.551
33	2.98e+05	3.0448	0.017535	1821	34.683	7.386	0.087376	2.4499	0	0	0	0	0	9904.2	77633	72104	254.69	6.1344	2.0689e-08	0	4.2577	58.608	7	2.4869e-11	3103.4	0.04478	0	402.95	1.9353e-320	14.551
33.5	2.67e+05	3.0597	0.017523	1821	35.127	7.3861	0.087331	2.4499	0	0	0	0	0	9779.5	78783	71389	272.12	6.5661	2.3239e-08	0	4.7825	58.608	7	2.7934e-11	3115.6	0.04478	0	402.95	2.1739e-320	14.551
34	2.36e+05	3.0763	0.01751	1820.9	35.597	7.3862	0.08728	2.4499	0	0	0	0	0	9647.1	79960	70631	290.59	7.0235	2.4685e-08	0	5.0799	58.608	7	2.9671e-11	3128.2	0.04478	0	402.95	2.3093e-320	14.55
34.5	2.07e+05	3.0954	0.017495	1820.8	36.192	7.3864	0.087223	2.4499	0	0	0	0	0	9483.3	81281	69676	314.44	7.6037	2.946e-08	0	6.0625	58.608	7	3.541e-11	3143.1	0.04478	0	402.95	2.7554e-320	14.55
35	1.77e+05	3.1113	0.01748	1820.8	36.669	7.3865	0.087167	2.4498	0	0	0	0	0	9346.8	82407	68904	332.91	8.0658	2.8655e-08	0	5.8966	58.608	7	3.4442e-11	3156.1	0.04478	0	402.95	2.6803e-320	14.55
35.5	1.52e+05	3.1307	0.017465	1820.7	37.365	7.3867	0.087106	2.4498	0	0	0	0	0	9154.5	83816	67782	360.97	8.7462	3.3791e-08	0	6.9534	58.608	7	4.0614e-11	3172.4	0.04478	0	402.95	3.1605e-320	14.55
36	1.27e+05	3.1501	0.017447	1820.6	38.056	7.3868	0.087039	2.4498	0	0	0	0	0	8960.3	85117	66663	388.37	9.4187	3.3991e-08	0	6.994	58.608	7	4.0851e-11	3188.8	0.04478	0	402.95	3.1788e-320	14.55
36.5	1.06e+05	3.1777	0.017427	1820.5	39.108	7.3871	0.086959	2.4499	0	0	0	0	0	8674	86877	64970	431.37	10.448	4.0922e-08	0	8.4193	58.608	7	4.9176e-11	3212	0.04478	0	402.95	3.827e-320	14.55
37	85250	3.2126	0.017401	1820.4	40.357	7.3875	0.086861	2.4499	0	0	0	0	0	8335.5	88812	62958	482.71	11.671	4.696e-08	0	9.66	58.608	7	5.6423e-11	3241	0.04478	0	402.95	4.3908e-320	14.549
37.5	66375	3.2547	0.017372	1820.2	41.965	7.388	0.086749	2.4501	0	0	0	0	0	7907	91223	60376	549.93	13.249	6.2539e-08	0	12.862	58.608	7	7.5127e-11	3278.9	0.04478	0	402.95	5.8463e-320	14.549
38	47500	3.2902	0.017342	1820.1	43.112	7.3882	0.086631	2.4501	0	0	0	0	0	7588.5	92847	58513	596.33	14.362	5.7192e-08	0	11.758	58.608	7	6.8675e-11	3310.5	0.04478	0	402.95	5.3443e-320	14.549
38.5	35000	3.3378	0.017308	1819.9	45.13	7.3889	0.086501	2.4503	0	0	0	0	0	7054.8	95714	55268	681.98	16.345	8.2091e-08	0	16.869	58.608	7	9.8533e-11	3355.5	0.04478	0	402.95	7.6679e-320	14.549
39	22500	3.3764	0.017271	1819.7	46.374	7.3891	0.086357	2.4502	0	0	0	0	0	6700.1	97114	53214	732.27	17.546	6.0983e-08	0	12.516	58.608	7	7.3105e-11	3383.7	0.04478	0	402.95	5.6892e-320	14.548
39.5	16250	3.4519	0.017222	1819.5	49.871	7.3902	0.086167	2.4506	0	0	0	0	0	5789.9	1.0151e+05	47573	884.02	20.988	9.025e-08	0	18.476	58.608	7	1.0792e-10	3448.1	0.04478	0	402.95	8.3981e-320	14.548
40	10000	3.5626	0.017158	1819.1	55.283	7.3921	0.085921	2.4514	0	0	0	0	0	4415.4	1.0847e+05	38875	1123.2	26.323	1.2789e-07	0	25.867	58.608	7	1.5108e-10	3562.9	0.04478	0	402.95	1.9683e-319	14.547
40.5	5000	3.7207	0.017093	1818.8	66.083	7.3966	0.085667	2.4538	0	0	0	0	0	1767	1.2509e+05	21724	1611.3	37.044	4.0277e-07	0	77.6	58.608	7	4.5325e-10	3794.4	0.04478	0	402.95	4.3198e-319	14.546
41	0	3.7207	0.017093	1818.8	66.083	7.3966	0.085667	2.4538	0	0	0	0	0	1767	1.2509e+05	21724	1611.3	37.044	4.0277e-07	0	77.6	58.608	7	4.5325e-10	3794.4	0.04478	0	402.95	4.3198e-319	14.546
