skip 
 Z (m)	  Az (m2)	 Tz (deg C)	  Cz(mg/m3)	  POCz (mg/m3)	  TPz (mg/m3)	 DOPz (mg/m3)	    Chlaz (mg/m3)	   DOCz (mg/m3)	    TPz_sed (mg/m3)	 Chlaz_sed (mg/m3)	   Fvol_IM (m3/m3, dry w.)	 Hice (m)	 Hsnow (m)	 O2z (mg/m3)	 DICz (mg/m3)	 NO3z (mg/m3)	 NH4z (mg/m3)	 SO4z (mg/m3)	 HSz (mg/m3)	 H2Sz (mg/m3)	 Fe2z (mg/m3)	 Ca2z (mg/m3)	 pHz (mg/m3)	 CH4aqz (mg/m3)	 Fe3z (mg/m3)	 Al3z (mg/m3)	 FeSz (mg/m3)	 CaCO3z (mg/m3)	 CH4gz (mg/m3)	 POPz (mg/m3)
0	2.38e+07	2.7588	0.0087624	403.07	17.715	6.4671	1.1631	7.2909	0	0	0	0	0	12628	17127	5249.9	26.782	3997.4	1.5497e-05	0	1.4909e-05	67.909	7	0	894.58	146.36	0	468.86	2.4689	20.534
0.5	2.27e+07	2.7588	0.0085906	403.07	17.715	6.4671	1.1544	7.2909	0	0	0	0	0	12627	17160	5250.2	26.782	3997.4	1.5499e-05	0	1.4911e-05	67.909	7	0	894.58	146.36	0	468.86	2.4689	20.534
1	2.16e+07	2.7588	0.0084376	403.07	17.715	6.4671	1.1339	7.2909	0	0	0	0	0	12625	17159	5250.8	26.782	3997.4	1.5502e-05	0	1.4914e-05	67.909	7	0	894.58	146.36	0	468.86	2.4689	20.534
1.5	2.05e+07	2.7588	0.0083502	403.07	17.715	6.4671	1.1064	7.2909	0	0	0	0	0	12622	17159	5251.7	26.782	3997.4	1.5507e-05	0	1.4919e-05	67.909	7	0	894.58	146.36	0	468.86	2.4689	20.534
2	1.93e+07	2.7588	0.0083	403.07	17.715	6.4671	1.09	7.2909	0	0	0	0	0	12620	17159	5252.3	26.782	3997.4	1.5509e-05	0	1.4922e-05	67.909	7	0	894.58	146.36	0	468.86	2.4689	20.534
2.5	1.83e+07	2.7588	0.0082711	403.07	17.715	6.4671	1.0806	7.2909	0	0	0	0	0	12619	17159	5252.6	26.782	3997.4	1.5511e-05	0	1.4923e-05	67.909	7	0	894.58	146.36	0	468.86	2.4689	20.534
3	1.72e+07	2.7588	0.0082544	403.07	17.715	6.4671	1.0752	7.2909	0	0	0	0	0	12618	17158	5252.7	26.782	3997.4	1.5512e-05	0	1.4924e-05	67.909	7	0	894.58	146.36	0	468.86	2.4689	20.534
3.5	1.62e+07	2.7588	0.0082448	403.07	17.715	6.4671	1.0721	7.2909	0	0	0	0	0	12618	17158	5252.8	26.782	3997.4	1.5512e-05	0	1.4925e-05	67.909	7	0	894.58	146.36	0	468.86	2.4689	20.534
4	1.52e+07	2.7588	0.0082392	403.07	17.715	6.4671	1.0703	7.2909	0	0	0	0	0	12618	17158	5252.9	26.782	3997.4	1.5513e-05	0	1.4925e-05	67.909	7	0	894.58	146.36	0	468.86	2.4689	20.534
4.5	1.44e+07	2.7588	0.0082359	403.07	17.715	6.4671	1.0692	7.2909	0	0	0	0	0	12618	17158	5252.9	26.782	3997.4	1.5513e-05	0	1.4925e-05	67.909	7	0	894.58	146.36	0	468.86	2.4689	20.534
5	1.36e+07	2.7588	0.0082341	403.07	17.715	6.4671	1.0686	7.2909	0	0	0	0	0	12617	17158	5252.9	26.782	3997.4	1.5513e-05	0	1.4926e-05	67.909	7	0	894.58	146.36	0	468.86	2.4689	20.534
5.5	1.3e+07	2.7588	0.008233	403.07	17.715	6.4671	1.0683	7.2909	0	0	0	0	0	12617	17158	5252.9	26.782	3997.4	1.5513e-05	0	1.4926e-05	67.909	7	0	894.58	146.36	0	468.86	2.4689	20.534
6	1.23e+07	2.7588	0.0082324	403.07	17.715	6.4671	1.0681	7.2909	0	0	0	0	0	12617	17158	5253	26.782	3997.4	1.5513e-05	0	1.4926e-05	67.909	7	0	894.58	146.36	0	468.86	2.4689	20.534
6.5	1.17e+07	2.7588	0.008232	403.07	17.715	6.4671	1.068	7.2909	0	0	0	0	0	12617	17158	5253	26.782	3997.4	1.5513e-05	0	1.4926e-05	67.909	7	0	894.58	146.36	0	468.86	2.4689	20.534
7	1.11e+07	2.7588	0.0082318	403.07	17.715	6.4671	1.0679	7.2909	0	0	0	0	0	12617	17158	5253	26.782	3997.4	1.5513e-05	0	1.4926e-05	67.909	7	0	894.58	146.36	0	468.86	2.4689	20.534
7.5	1.05e+07	2.7588	0.0082317	403.07	17.715	6.4671	1.0679	7.2909	0	0	0	0	0	12617	17158	5253	26.782	3997.4	1.5513e-05	0	1.4926e-05	67.909	7	0	894.58	146.36	0	468.86	2.4689	20.534
8	9.97e+06	2.7588	0.0082316	403.07	17.715	6.4671	1.0678	7.2909	0	0	0	0	0	12617	17158	5253	26.782	3997.4	1.5513e-05	0	1.4926e-05	67.909	7	0	894.58	146.36	0	468.86	2.4689	20.534
8.5	9.45e+06	2.7588	0.0082316	403.07	17.715	6.4671	1.0678	7.2909	0	0	0	0	0	12617	17158	5253	26.782	3997.4	1.5513e-05	0	1.4926e-05	67.909	7	0	894.58	146.36	0	468.86	2.4689	20.534
9	8.93e+06	2.7588	0.0082315	403.07	17.715	6.4671	1.0678	7.2909	0	0	0	0	0	12617	17158	5253	26.782	3997.4	1.5513e-05	0	1.4926e-05	67.909	7	0	894.58	146.36	0	468.86	2.4689	20.534
9.5	8.45e+06	2.7588	0.0082315	403.07	17.715	6.4671	1.0678	7.2909	0	0	0	0	0	12617	17158	5253	26.782	3997.4	1.5513e-05	0	1.4926e-05	67.909	7	0	894.58	146.36	0	468.86	2.4689	20.534
10	7.96e+06	2.7588	0.0082315	403.07	17.715	6.4671	1.0678	7.2909	0	0	0	0	0	12617	17158	5253	26.782	3997.4	1.5513e-05	0	1.4926e-05	67.909	7	0	894.58	146.36	0	468.86	2.4689	20.534
10.5	7.55e+06	2.7588	0.0082315	403.07	17.715	6.4671	1.0678	7.2909	0	0	0	0	0	12617	17158	5253	26.782	3997.4	1.5513e-05	0	1.4926e-05	67.909	7	0	894.58	146.36	0	468.86	2.4689	20.534
11	7.14e+06	2.7588	0.0082315	403.07	17.715	6.4671	1.0678	7.2909	0	0	0	0	0	12617	17158	5253	26.782	3997.4	1.5513e-05	0	1.4926e-05	67.909	7	0	894.58	146.36	0	468.86	2.4689	20.534
11.5	6.78e+06	2.7588	0.0082315	403.07	17.715	6.4671	1.0678	7.2909	0	0	0	0	0	12617	17158	5253	26.782	3997.4	1.5513e-05	0	1.4926e-05	67.909	7	0	894.58	146.36	0	468.86	2.4689	20.534
12	6.41e+06	2.7588	0.0082315	403.07	17.715	6.4671	1.0678	7.2909	0	0	0	0	0	12617	17158	5253	26.782	3997.4	1.5513e-05	0	1.4926e-05	67.909	7	0	894.58	146.36	0	468.86	2.4689	20.534
12.5	6.05e+06	2.7588	0.0082315	403.07	17.715	6.4671	1.0678	7.2909	0	0	0	0	0	12617	17158	5253	26.782	3997.4	1.5513e-05	0	1.4926e-05	67.909	7	0	894.58	146.36	0	468.86	2.4689	20.534
13	5.69e+06	2.7588	0.0082315	403.07	17.715	6.4671	1.0678	7.2909	0	0	0	0	0	12617	17158	5253	26.782	3997.4	1.5513e-05	0	1.4926e-05	67.909	7	0	894.58	146.36	0	468.86	2.4689	20.534
13.5	5.37e+06	2.7588	0.0082315	403.07	17.715	6.4671	1.0678	7.2909	0	0	0	0	0	12617	17158	5253	26.782	3997.4	1.5513e-05	0	1.4926e-05	67.909	7	0	894.58	146.36	0	468.86	2.4689	20.534
14	5.05e+06	2.7588	0.0082315	403.07	17.715	6.4671	1.0678	7.2909	0	0	0	0	0	12617	17158	5253	26.782	3997.4	1.5513e-05	0	1.4926e-05	67.909	7	0	894.58	146.36	0	468.86	2.4689	20.534
14.5	4.76e+06	2.7588	0.0082315	403.07	17.715	6.4671	1.0678	7.2909	0	0	0	0	0	12617	17158	5253	26.782	3997.4	1.5513e-05	0	1.4926e-05	67.909	7	0	894.58	146.36	0	468.86	2.4689	20.534
15	4.46e+06	2.7588	0.0082315	403.07	17.715	6.4671	1.0678	7.2909	0	0	0	0	0	12617	17158	5253	26.782	3997.4	1.5513e-05	0	1.4926e-05	67.909	7	0	894.58	146.36	0	468.86	2.4689	20.534
15.5	4.18e+06	2.7588	0.0082315	403.07	17.715	6.4671	1.0678	7.2909	0	0	0	0	0	12617	17158	5253	26.782	3997.4	1.5513e-05	0	1.4926e-05	67.909	7	0	894.58	146.36	0	468.86	2.4689	20.534
16	3.9e+06	2.7588	0.0082315	403.07	17.715	6.4671	1.0678	7.2909	0	0	0	0	0	12617	17158	5253	26.782	3997.4	1.5513e-05	0	1.4926e-05	67.909	7	0	894.58	146.36	0	468.86	2.4689	20.534
16.5	3.67e+06	2.7588	0.0082315	403.07	17.715	6.4671	1.0678	7.2909	0	0	0	0	0	12617	17158	5253	26.782	3997.4	1.5513e-05	0	1.4926e-05	67.909	7	0	894.58	146.36	0	468.86	2.4689	20.534
17	3.43e+06	2.7588	0.0082315	403.07	17.715	6.4671	1.0678	7.2909	0	0	0	0	0	12617	17158	5253	26.782	3997.4	1.5513e-05	0	1.4926e-05	67.909	7	0	894.58	146.36	0	468.86	2.4689	20.534
17.5	3.23e+06	2.7588	0.0082315	403.07	17.715	6.4671	1.0678	7.2909	0	0	0	0	0	12617	17158	5253	26.782	3997.4	1.5513e-05	0	1.4926e-05	67.909	7	0	894.58	146.36	0	468.86	2.4689	20.534
18	3.03e+06	2.7588	0.0082315	403.07	17.715	6.4671	1.0678	7.2909	0	0	0	0	0	12617	17158	5253	26.782	3997.4	1.5513e-05	0	1.4926e-05	67.909	7	0	894.58	146.36	0	468.86	2.4689	20.534
18.5	2.84e+06	2.7588	0.0082315	403.07	17.715	6.4671	1.0678	7.2909	0	0	0	0	0	12617	17158	5253	26.782	3997.4	1.5513e-05	0	1.4926e-05	67.909	7	0	894.58	146.36	0	468.86	2.4689	20.534
19	2.65e+06	2.7588	0.0082315	403.07	17.715	6.4671	1.0678	7.2909	0	0	0	0	0	12617	17158	5253	26.782	3997.4	1.5513e-05	0	1.4926e-05	67.909	7	0	894.58	146.36	0	468.86	2.4689	20.534
19.5	2.49e+06	2.7588	0.0082315	403.07	17.715	6.4671	1.0678	7.2909	0	0	0	0	0	12617	17158	5253	26.782	3997.4	1.5513e-05	0	1.4926e-05	67.909	7	0	894.58	146.36	0	468.86	2.4689	20.534
20	2.32e+06	2.7588	0.0082315	403.07	17.715	6.4671	1.0678	7.2909	0	0	0	0	0	12617	17158	5253	26.782	3997.4	1.5513e-05	0	1.4926e-05	67.909	7	0	894.58	146.36	0	468.86	2.4689	20.534
20.5	2.18e+06	2.7588	0.0082315	403.07	17.715	6.4671	1.0678	7.2909	0	0	0	0	0	12617	17158	5253	26.782	3997.4	1.5513e-05	0	1.4926e-05	67.909	7	0	894.58	146.36	0	468.86	2.4689	20.534
21	2.04e+06	2.7588	0.0082315	403.07	17.715	6.4671	1.0678	7.2909	0	0	0	0	0	12617	17158	5253	26.782	3997.4	1.5513e-05	0	1.4926e-05	67.909	7	0	894.58	146.36	0	468.86	2.4689	20.534
21.5	1.91e+06	2.7588	0.0082315	403.07	17.715	6.4671	1.0678	7.2909	0	0	0	0	0	12617	17158	5253	26.782	3997.4	1.5513e-05	0	1.4926e-05	67.909	7	0	894.58	146.36	0	468.86	2.4689	20.534
22	1.78e+06	2.7588	0.0082315	403.07	17.715	6.4671	1.0678	7.2909	0	0	0	0	0	12617	17158	5253	26.782	3997.4	1.5513e-05	0	1.4926e-05	67.909	7	0	894.58	146.36	0	468.86	2.4689	20.534
22.5	1.68e+06	2.7588	0.0082315	403.07	17.715	6.4671	1.0678	7.2909	0	0	0	0	0	12617	17158	5253	26.782	3997.4	1.5513e-05	0	1.4926e-05	67.909	7	0	894.58	146.36	0	468.86	2.4689	20.534
23	1.57e+06	2.7588	0.0082315	403.07	17.715	6.4671	1.0678	7.2909	0	0	0	0	0	12617	17158	5253	26.782	3997.4	1.5513e-05	0	1.4926e-05	67.909	7	0	894.58	146.36	0	468.86	2.4689	20.534
23.5	1.48e+06	2.7588	0.0082315	403.07	17.715	6.4671	1.0678	7.2909	0	0	0	0	0	12617	17158	5253	26.782	3997.4	1.5513e-05	0	1.4926e-05	67.909	7	0	894.58	146.36	0	468.86	2.4689	20.534
24	1.38e+06	2.7588	0.0082315	403.07	17.715	6.4671	1.0678	7.2909	0	0	0	0	0	12617	17158	5253	26.782	3997.4	1.5513e-05	0	1.4926e-05	67.909	7	0	894.58	146.36	0	468.86	2.4689	20.534
24.5	1.29e+06	2.7588	0.0082315	403.07	17.715	6.4671	1.0678	7.2909	0	0	0	0	0	12617	17158	5253	26.782	3997.4	1.5513e-05	0	1.4926e-05	67.909	7	0	894.58	146.36	0	468.86	2.4689	20.534
25	1.19e+06	2.7588	0.0082315	403.07	17.715	6.4671	1.0678	7.2909	0	0	0	0	0	12617	17158	5253	26.782	3997.4	1.5513e-05	0	1.4926e-05	67.909	7	0	894.58	146.36	0	468.86	2.4689	20.534
25.5	1.11e+06	2.7588	0.0082315	403.07	17.715	6.4671	1.0678	7.2909	0	0	0	0	0	12617	17158	5253	26.782	3997.4	1.5513e-05	0	1.4926e-05	67.909	7	0	894.58	146.36	0	468.86	2.4689	20.534
26	1.03e+06	2.7588	0.0082315	403.07	17.715	6.4671	1.0678	7.2909	0	0	0	0	0	12617	17158	5253	26.782	3997.4	1.5513e-05	0	1.4926e-05	67.909	7	0	894.58	146.36	0	468.86	2.4689	20.534
26.5	9.59e+05	2.7588	0.0082315	403.07	17.715	6.4671	1.0678	7.2909	0	0	0	0	0	12617	17158	5253	26.782	3997.4	1.5513e-05	0	1.4926e-05	67.909	7	0	894.58	146.36	0	468.86	2.4689	20.534
27	8.88e+05	2.7588	0.0082315	403.07	17.715	6.4671	1.0678	7.2909	0	0	0	0	0	12617	17158	5253	26.782	3997.4	1.5513e-05	0	1.4926e-05	67.909	7	0	894.58	146.36	0	468.86	2.4689	20.534
27.5	8.2e+05	2.7588	0.0082315	403.07	17.715	6.4671	1.0678	7.2909	0	0	0	0	0	12617	17158	5253	26.782	3997.4	1.5513e-05	0	1.4926e-05	67.909	7	0	894.58	146.36	0	468.86	2.4689	20.534
28	7.52e+05	2.7588	0.0082315	403.07	17.715	6.4671	1.0678	7.2909	0	0	0	0	0	12617	17158	5253	26.782	3997.4	1.5513e-05	0	1.4926e-05	67.909	7	0	894.58	146.36	0	468.86	2.4689	20.534
28.5	6.91e+05	2.7588	0.0082315	403.07	17.715	6.4671	1.0678	7.2909	0	0	0	0	0	12617	17158	5253	26.782	3997.4	1.5513e-05	0	1.4926e-05	67.909	7	0	894.58	146.36	0	468.86	2.4689	20.534
29	6.29e+05	2.7588	0.0082315	403.07	17.715	6.4671	1.0678	7.2909	0	0	0	0	0	12617	17158	5253	26.782	3997.4	1.5513e-05	0	1.4926e-05	67.909	7	0	894.58	146.36	0	468.86	2.4689	20.534
29.5	5.77e+05	2.7588	0.0082315	403.07	17.715	6.4671	1.0678	7.2909	0	0	0	0	0	12617	17158	5253	26.782	3997.4	1.5513e-05	0	1.4926e-05	67.909	7	0	894.58	146.36	0	468.86	2.4689	20.534
30	5.24e+05	2.7588	0.0082315	403.07	17.715	6.4671	1.0678	7.2909	0	0	0	0	0	12617	17158	5253	26.782	3997.4	1.5513e-05	0	1.4926e-05	67.909	7	0	894.58	146.36	0	468.86	2.4689	20.534
30.5	4.82e+05	2.7588	0.0082315	403.07	17.884	6.4669	1.0678	7.2907	0	0	0	0	0	12590	17215	5235.5	28.974	3997	4.3251e-05	0	1.6205	67.909	7	0.0089496	894.58	146.36	0	468.86	116.37	20.534
31	4.4e+05	2.7588	0.0082315	403.07	17.873	6.4669	1.0678	7.2907	0	0	0	0	0	12592	17212	5236.6	28.835	3997	4.1486e-05	0	1.5174	67.909	7	0.00838	894.58	146.36	0	468.86	109.12	20.534
31.5	4.04e+05	2.7588	0.0082315	403.07	17.893	6.4669	1.0678	7.2906	0	0	0	0	0	12589	17218	5234.6	29.092	3997	4.4735e-05	0	1.7072	67.909	7	0.0094283	894.58	146.36	0	468.86	122.47	20.534
32	3.67e+05	2.7588	0.0082315	403.07	17.895	6.4669	1.0678	7.2906	0	0	0	0	0	12588	17219	5234.3	29.12	3996.9	4.5089e-05	0	1.7279	67.909	7	0.0095426	894.58	146.36	0	468.86	123.92	20.534
32.5	3.33e+05	2.7588	0.0082315	403.07	17.921	6.4669	1.0678	7.2906	0	0	0	0	0	12584	17228	5231.7	29.452	3996.9	4.9288e-05	0	1.9732	67.909	7	0.010897	894.58	146.36	0	468.86	141.16	20.534
33	2.98e+05	2.7588	0.0082315	403.07	17.918	6.4669	1.0678	7.2906	0	0	0	0	0	12585	17227	5231.9	29.423	3996.9	4.8923e-05	0	1.9519	67.909	7	0.010779	894.58	146.36	0	468.86	139.66	20.534
33.5	2.67e+05	2.7588	0.0082315	403.07	17.943	6.4668	1.0678	7.2906	0	0	0	0	0	12581	17235	5229.3	29.748	3996.8	5.3041e-05	0	2.1925	67.909	7	0.012108	894.58	146.36	0	468.86	156.57	20.534
34	2.36e+05	2.7588	0.0082315	403.07	17.958	6.4668	1.0678	7.2906	0	0	0	0	0	12578	17240	5227.9	29.933	3996.8	5.5375e-05	0	2.3288	67.909	7	0.012861	894.58	146.36	0	468.86	166.16	20.534
34.5	2.07e+05	2.7588	0.0082315	403.07	18.005	6.4667	1.0678	7.2905	0	0	0	0	0	12571	17256	5223	30.542	3996.7	6.3085e-05	0	2.7793	67.909	7	0.015349	894.58	146.36	0	468.86	197.82	20.534
35	1.77e+05	2.7588	0.0082315	403.07	17.997	6.4668	1.0678	7.2905	0	0	0	0	0	12572	17253	5223.8	30.439	3996.7	6.1784e-05	0	2.7032	67.909	7	0.014929	894.58	146.36	0	468.86	192.47	20.534
35.5	1.52e+05	2.7588	0.0082315	403.07	18.047	6.4667	1.0678	7.2905	0	0	0	0	0	12564	17270	5218.6	31.095	3996.6	7.0076e-05	0	3.1877	67.909	7	0.017604	894.58	146.36	0	468.86	226.53	20.534
36	1.27e+05	2.7588	0.0082315	403.07	18.049	6.4667	1.0678	7.2905	0	0	0	0	0	12564	17271	5218.4	31.12	3996.6	7.0394e-05	0	3.2063	67.909	7	0.017707	894.58	146.36	0	468.86	227.83	20.534
36.5	1.06e+05	2.7588	0.0082315	403.07	18.117	6.4666	1.0678	7.2904	0	0	0	0	0	12553	17294	5211.4	32.004	3996.4	8.1579e-05	0	3.8597	67.909	7	0.021316	894.58	146.36	0	468.86	273.76	20.534
37	85250	2.7588	0.0082315	403.07	18.177	6.4665	1.0678	7.2903	0	0	0	0	0	12543	17314	5205.3	32.773	3996.3	9.1314e-05	0	4.4285	67.909	7	0.024457	894.58	146.36	0	468.86	313.74	20.534
37.5	66375	2.7588	0.0082315	403.07	18.33	6.4663	1.0678	7.2901	0	0	0	0	0	12519	17365	5189.4	34.759	3995.9	0.00011644	0	5.8966	67.909	7	0.032564	894.58	146.36	0	468.86	416.93	20.534
38	47500	2.7588	0.0082315	403.07	18.277	6.4664	1.0678	7.2902	0	0	0	0	0	12527	17348	5194.9	34.074	3996	0.00010777	0	5.3901	67.909	7	0.029767	894.58	146.36	0	468.86	381.33	20.534
38.5	35000	2.7588	0.0082315	403.07	18.521	6.4661	1.0678	7.2899	0	0	0	0	0	12488	17430	5169.7	37.245	3995.4	0.00014789	0	7.7336	67.909	7	0.04271	894.58	146.36	0	468.86	546.05	20.534
39	22500	2.7588	0.0082315	403.07	18.313	6.4663	1.0678	7.2901	0	0	0	0	0	12521	17360	5191.2	34.545	3995.9	0.00011373	0	5.7378	67.909	7	0.031688	894.58	146.36	0	468.86	405.77	20.534
39.5	16250	2.7588	0.0082315	403.07	18.598	6.466	1.0678	7.2898	0	0	0	0	0	12476	17456	5161.7	38.241	3995.2	0.00016049	0	8.4701	67.909	7	0.046777	894.58	146.36	0	468.86	597.82	20.534
40	10000	2.7588	0.0082315	403.07	18.951	6.4655	1.0678	7.2893	0	0	0	0	0	12419	17575	5125.2	42.824	3994.3	0.00021849	0	11.858	67.909	7	0.065488	894.58	146.36	0	468.86	835.96	20.534
40.5	5000	2.7588	0.0082315	403.07	21.423	6.4622	1.0678	7.2862	0	0	0	0	0	12023	18408	4869.8	74.909	3988.2	0.00062443	0	35.575	67.909	7	0.19646	894.58	146.36	0	468.86	2502.9	20.534
41	0	2.7588	0.0082315	403.07	21.423	6.4622	1.0678	7.2862	0	0	0	0	0	12023	18408	4869.8	74.909	3988.2	0.00062443	0	35.575	67.909	7	0.19646	894.58	146.36	0	468.86	2502.9	20.534
