skip 
 Z (m)	  Az (m2)	 Tz (deg C)	  Cz(mg/m3)	  Sz (kg/m3)	  TPz (mg/m3)	 DOPz (mg/m3)	    Chlaz (mg/m3)	   DOCz (mg/m3)	    TPz_sed (mg/m3)	 Chlaz_sed (mg/m3)	   Fvol_IM (m3/m3, dry w.)	 Hice (m)	 Hsnow (m)	 O2z (mg/m3)	 DICz (mg/m3)	 NO3z (mg/m3)	 NH4z (mg/m3)	 SO4z (mg/m3)	 HSz (mg/m3)	 H2Sz (mg/m3)	 Fe2z (mg/m3)	 Ca2z (mg/m3)	 pHz (mg/m3)	 CH4z (mg/m3)	 Fe3z (mg/m3)	 Al3z (mg/m3)	 SiO4z (mg/m3)	 SiO2z (mg/m3)	 diatomz (mg/m3)	 POCz (mg/m3)
0	2.38e+07	0	4.3145e-05	0.013388	18.518	1.1606	0.011311	11.363	0	0	0	0	0	11938	1162.7	969.21	278.71	0	0	0	0.0011462	-0	7	0	2212.5	4422.8	0	4197.3	0	1.2173
0.5	2.27e+07	0.6996	4.3432e-05	0.01163	18.51	0.46905	0.0049549	8.256	0	0	0	0	0	11679	1144.3	1035.9	295.3	0	0	0	0.00068225	-0	7	0	2265.8	4529.1	0	4502.8	0	0.1424
1	2.16e+07	1.6454	4.0733e-05	0.011458	18.455	0.146	0.0033813	7.6421	0	0	0	0	0	11550	1133.6	1071.2	303.86	0	0	0	0.00052446	-0	7	0	2289.4	4576.3	0	4576.3	0	0.00062814
1.5	2.04e+07	1.706	3.8012e-05	0.011469	18.484	0.1458	0.003255	7.6153	0	0	0	0	0	11537	1132.6	1071.3	303.87	0	0	0	0.00052387	-0	7	0	2289.4	4576.3	0	4576.3	0	0.00062594
2	1.93e+07	1.7714	3.6116e-05	0.011485	18.515	0.14561	0.0031446	7.5823	0	0	0	0	0	11523	1131.4	1071.3	303.87	0	0	0	0.00052305	-0	7	0	2289.4	4576.3	0	4576.3	0	0.00062323
2.5	1.82e+07	1.8262	3.4853e-05	0.011502	18.542	0.14544	0.0030612	7.5518	0	0	0	0	0	11511	1130.4	1071.3	303.87	0	0	0	0.00052224	-0	7	0	2289.4	4576.3	0	4576.3	0	0.00062072
3	1.72e+07	1.8752	3.3964e-05	0.01152	18.566	0.1453	0.0029942	7.5224	0	0	0	0	0	11500	1129.4	1071.3	303.87	0	0	0	0.00052142	-0	7	0	2289.4	4576.3	0	4576.3	0	0.00061831
3.5	1.61e+07	1.9126	3.3365e-05	0.011537	18.585	0.14518	0.0029466	7.4988	0	0	0	0	0	11490	1128.7	1071.3	303.87	0	0	0	0.00052075	-0	7	0	2289.4	4576.3	0	4576.3	0	0.00061636
4	1.52e+07	1.9475	3.2906e-05	0.011554	18.604	0.14507	0.0029058	7.4757	0	0	0	0	0	11482	1127.9	1071.3	303.87	0	0	0	0.00052009	-0	7	0	2289.4	4576.3	0	4576.3	0	0.00061446
4.5	1.42e+07	1.97	3.2622e-05	0.011566	18.615	0.145	0.0028808	7.4604	0	0	0	0	0	11476	1127.4	1071.3	303.87	0	0	0	0.00051965	-0	7	0	2289.4	4576.3	0	4576.3	0	0.00061321
5	1.36e+07	1.9949	3.2367e-05	0.011581	18.629	0.14492	0.0028554	7.4431	0	0	0	0	0	11469	1126.8	1071.3	303.87	0	0	0	0.00051915	-0	7	0	2289.4	4576.3	0	4576.3	0	0.00061179
5.5	1.29e+07	2.0133	3.2191e-05	0.011593	18.639	0.14486	0.0028376	7.4301	0	0	0	0	0	11464	1126.4	1071.3	303.87	0	0	0	0.00051879	-0	7	0	2289.4	4576.3	0	4576.3	0	0.00061072
6	1.23e+07	2.0313	3.204e-05	0.011606	18.649	0.1448	0.0028215	7.4174	0	0	0	0	0	11459	1126	1071.3	303.87	0	0	0	0.00051843	-0	7	0	2289.4	4576.3	0	4576.3	0	0.00060968
6.5	1.16e+07	2.0425	3.1949e-05	0.011614	18.655	0.14476	0.0028118	7.4095	0	0	0	0	0	11456	1125.7	1071.3	303.87	0	0	0	0.00051822	-0	7	0	2289.4	4576.3	0	4576.3	0	0.00060902
7	1.11e+07	2.0558	3.1853e-05	0.011624	18.662	0.14472	0.0028011	7.4001	0	0	0	0	0	11452	1125.4	1071.3	303.87	0	0	0	0.00051796	-0	7	0	2289.4	4576.3	0	4576.3	0	0.00060825
7.5	1.05e+07	2.0651	3.179e-05	0.011632	18.667	0.14469	0.002794	7.3935	0	0	0	0	0	11449	1125.1	1071.3	303.87	0	0	0	0.00051779	-0	7	0	2289.4	4576.3	0	4576.3	0	0.00060771
8	9.97e+06	2.074	3.1732e-05	0.011639	18.672	0.14466	0.0027875	7.3872	0	0	0	0	0	11447	1124.9	1071.3	303.87	0	0	0	0.00051763	-0	7	0	2289.4	4576.3	0	4576.3	0	0.00060719
8.5	9.43e+06	2.0811	3.1689e-05	0.011646	18.676	0.14463	0.0027825	7.3822	0	0	0	0	0	11444	1124.7	1071.3	303.87	0	0	0	0.0005175	-0	7	0	2289.4	4576.3	0	4576.3	0	0.00060678
9	8.93e+06	2.0877	3.1652e-05	0.011652	18.68	0.14461	0.0027782	7.3777	0	0	0	0	0	11442	1124.5	1071.3	303.87	0	0	0	0.00051739	-0	7	0	2289.4	4576.3	0	4576.3	0	0.00060641
9.5	8.43e+06	2.0935	3.162e-05	0.011657	18.683	0.14459	0.0027744	7.3736	0	0	0	0	0	11441	1124.4	1071.3	303.87	0	0	0	0.0005173	-0	7	0	2289.4	4576.3	0	4576.3	0	0.00060608
10	7.96e+06	2.0987	3.1592e-05	0.011662	18.686	0.14457	0.0027712	7.37	0	0	0	0	0	11439	1124.2	1071.3	303.87	0	0	0	0.00051721	-0	7	0	2289.4	4576.3	0	4576.3	0	0.00060578
10.5	7.48e+06	2.1035	3.1568e-05	0.011666	18.689	0.14456	0.0027684	7.3667	0	0	0	0	0	11438	1124.1	1071.3	303.87	0	0	0	0.00051713	-0	7	0	2289.4	4576.3	0	4576.3	0	0.00060551
11	7.14e+06	2.1077	3.1547e-05	0.011671	18.692	0.14455	0.0027659	7.3638	0	0	0	0	0	11436	1124	1071.3	303.87	0	0	0	0.00051707	-0	7	0	2289.4	4576.3	0	4576.3	0	0.00060527
11.5	6.79e+06	2.1116	3.1529e-05	0.011674	18.694	0.14454	0.0027638	7.3612	0	0	0	0	0	11435	1123.9	1071.3	303.87	0	0	0	0.00051701	-0	7	0	2289.4	4576.3	0	4576.3	0	0.00060506
12	6.41e+06	2.115	3.1513e-05	0.011678	18.696	0.14453	0.002762	7.3589	0	0	0	0	0	11434	1123.8	1071.3	303.87	0	0	0	0.00051696	-0	7	0	2289.4	4576.3	0	4576.3	0	0.00060487
12.5	6.03e+06	2.1182	3.15e-05	0.011681	18.698	0.14452	0.0027604	7.3568	0	0	0	0	0	11433	1123.7	1071.3	303.87	0	0	0	0.00051691	-0	7	0	2289.4	4576.3	0	4576.3	0	0.00060469
13	5.69e+06	2.1209	3.1488e-05	0.011684	18.699	0.14451	0.0027591	7.355	0	0	0	0	0	11432	1123.6	1071.3	303.87	0	0	0	0.00051687	-0	7	0	2289.4	4576.3	0	4576.3	0	0.00060454
13.5	5.34e+06	2.1235	3.1477e-05	0.011687	18.701	0.1445	0.0027579	7.3533	0	0	0	0	0	11431	1123.6	1071.3	303.87	0	0	0	0.00051684	-0	7	0	2289.4	4576.3	0	4576.3	0	0.00060441
14	5.05e+06	2.1257	3.1468e-05	0.011689	18.702	0.14449	0.0027568	7.3518	0	0	0	0	0	11431	1123.5	1071.3	303.87	0	0	0	0.00051681	-0	7	0	2289.4	4576.3	0	4576.3	0	0.00060429
14.5	4.75e+06	2.1277	3.1461e-05	0.011691	18.703	0.14449	0.0027559	7.3505	0	0	0	0	0	11430	1123.5	1071.3	303.87	0	0	0	0.00051678	-0	7	0	2289.4	4576.3	0	4576.3	0	0.00060418
15	4.46e+06	2.1296	3.1454e-05	0.011693	18.704	0.14448	0.0027551	7.3494	0	0	0	0	0	11429	1123.4	1071.3	303.87	0	0	0	0.00051676	-0	7	0	2289.4	4576.3	0	4576.3	0	0.00060408
15.5	4.16e+06	2.1312	3.1448e-05	0.011695	18.705	0.14448	0.0027544	7.3483	0	0	0	0	0	11429	1123.4	1071.3	303.87	0	0	0	0.00051673	-0	7	0	2289.4	4576.3	0	4576.3	0	0.000604
16	3.9e+06	2.1326	3.1442e-05	0.011697	18.706	0.14447	0.0027538	7.3474	0	0	0	0	0	11428	1123.3	1071.3	303.87	0	0	0	0.00051672	-0	7	0	2289.4	4576.3	0	4576.3	0	0.00060392
16.5	3.63e+06	2.1339	3.1438e-05	0.011698	18.707	0.14447	0.0027533	7.3466	0	0	0	0	0	11428	1123.3	1071.3	303.87	0	0	0	0.0005167	-0	7	0	2289.4	4576.3	0	4576.3	0	0.00060385
17	3.43e+06	2.1351	3.1434e-05	0.011699	18.707	0.14446	0.0027529	7.3458	0	0	0	0	0	11428	1123.3	1071.3	303.87	0	0	0	0.00051669	-0	7	0	2289.4	4576.3	0	4576.3	0	0.00060379
17.5	3.22e+06	2.1361	3.143e-05	0.011701	18.708	0.14446	0.0027525	7.3452	0	0	0	0	0	11427	1123.2	1071.3	303.87	0	0	0	0.00051667	-0	7	0	2289.4	4576.3	0	4576.3	0	0.00060374
18	3.03e+06	2.137	3.1427e-05	0.011702	18.708	0.14446	0.0027521	7.3446	0	0	0	0	0	11427	1123.2	1071.3	303.87	0	0	0	0.00051666	-0	7	0	2289.4	4576.3	0	4576.3	0	0.00060369
18.5	2.84e+06	2.1379	3.1425e-05	0.011703	18.709	0.14446	0.0027518	7.3441	0	0	0	0	0	11427	1123.2	1071.3	303.87	0	0	0	0.00051665	-0	7	0	2289.4	4576.3	0	4576.3	0	0.00060365
19	2.65e+06	2.1386	3.1422e-05	0.011703	18.709	0.14445	0.0027516	7.3436	0	0	0	0	0	11427	1123.2	1071.3	303.87	0	0	0	0.00051664	-0	7	0	2289.4	4576.3	0	4576.3	0	0.00060361
19.5	2.46e+06	2.1393	3.142e-05	0.011704	18.71	0.14445	0.0027513	7.3432	0	0	0	0	0	11426	1123.1	1071.3	303.87	0	0	0	0.00051664	-0	7	0	2289.4	4576.3	0	4576.3	0	0.00060357
20	2.32e+06	2.1399	3.1418e-05	0.011705	18.71	0.14445	0.0027511	7.3428	0	0	0	0	0	11426	1123.1	1071.3	303.87	0	0	0	0.00051663	-0	7	0	2289.4	4576.3	0	4576.3	0	0.00060354
20.5	2.17e+06	2.1405	3.1417e-05	0.011705	18.71	0.14445	0.0027509	7.3425	0	0	0	0	0	11426	1123.1	1071.3	303.87	0	0	0	0.00051662	-0	7	0	2289.4	4576.3	0	4576.3	0	0.00060352
21	2.04e+06	2.141	3.1416e-05	0.011706	18.711	0.14445	0.0027508	7.3422	0	0	0	0	0	11426	1123.1	1071.3	303.87	0	0	0	0.00051662	-0	7	0	2289.4	4576.3	0	4576.3	0	0.00060349
21.5	1.9e+06	2.1414	3.1414e-05	0.011707	18.711	0.14445	0.0027507	7.3419	0	0	0	0	0	11426	1123.1	1071.3	303.87	0	0	0	0.00051661	-0	7	0	2289.4	4576.3	0	4576.3	0	0.00060347
22	1.78e+06	2.1419	3.1413e-05	0.011707	18.711	0.14445	0.0027505	7.3417	0	0	0	0	0	11426	1123.1	1071.3	303.87	0	0	0	0.00051661	-0	7	0	2289.4	4576.3	0	4576.3	0	0.00060345
22.5	1.65e+06	2.1423	3.1412e-05	0.011707	18.711	0.14444	0.0027504	7.3415	0	0	0	0	0	11425	1123.1	1071.3	303.87	0	0	0	0.0005166	-0	7	0	2289.4	4576.3	0	4576.3	0	0.00060344
23	1.57e+06	2.1428	3.1411e-05	0.011708	18.712	0.14444	0.0027503	7.3413	0	0	0	0	0	11425	1123.1	1071.3	303.87	0	0	0	0.0005166	-0	7	0	2289.4	4576.3	0	4576.3	0	0.00060342
23.5	1.48e+06	2.1432	3.1411e-05	0.011708	18.712	0.14444	0.0027503	7.3412	0	0	0	0	0	11425	1123.1	1071.3	303.87	0	0	0	0.0005166	-0	7	0	2289.4	4576.3	0	4576.3	0	0.00060341
24	1.38e+06	2.1437	3.141e-05	0.011708	18.712	0.14444	0.0027502	7.341	0	0	0	0	0	11425	1123.1	1071.3	303.87	0	0	0	0.00051659	-0	7	0	2289.4	4576.3	0	4576.3	0	0.0006034
24.5	1.27e+06	2.1441	3.1409e-05	0.011709	18.712	0.14444	0.0027501	7.3409	0	0	0	0	0	11425	1123	1071.3	303.87	0	0	0	0.00051659	-0	7	0	2289.4	4576.3	0	4576.3	0	0.00060339
25	1.19e+06	2.1445	3.1409e-05	0.011709	18.712	0.14444	0.0027501	7.3408	0	0	0	0	0	11425	1123	1071.3	303.87	0	0	0	0.00051659	-0	7	0	2289.4	4576.3	0	4576.3	0	0.00060338
25.5	1.11e+06	2.145	3.1408e-05	0.011709	18.712	0.14444	0.00275	7.3407	0	0	0	0	0	11425	1123	1071.3	303.87	0	0	0	0.00051659	-0	7	0	2289.4	4576.3	0	4576.3	0	0.00060337
26	1.03e+06	2.1454	3.1407e-05	0.011709	18.712	0.14444	0.0027499	7.3406	0	0	0	0	0	11425	1123	1071.3	303.87	0	0	0	0.00051659	-0	7	0	2289.4	4576.3	0	4576.3	0	0.00060336
26.5	9.58e+05	2.1459	3.1407e-05	0.011709	18.712	0.14443	0.0027499	7.3405	0	0	0	0	0	11425	1123	1071.3	303.87	0	0	0	0.00051658	-0	7	0	2289.4	4576.3	0	4576.3	0	0.00060336
27	8.88e+05	2.1464	3.1407e-05	0.01171	18.712	0.14443	0.0027499	7.3405	0	0	0	0	0	11425	1123	1071.3	303.87	0	0	0	0.00051658	-0	7	0	2289.4	4576.3	0	4576.3	0	0.00060335
27.5	8.18e+05	2.1469	3.1406e-05	0.01171	18.712	0.14443	0.0027498	7.3404	0	0	0	0	0	11425	1123	1071.3	303.87	0	0	0	0.00051658	-0	7	0	2289.4	4576.3	0	4576.3	0	0.00060334
28	7.52e+05	2.1475	3.1406e-05	0.01171	18.713	0.14443	0.0027498	7.3403	0	0	0	0	0	11425	1123	1071.3	303.87	0	0	0	0.00051658	-0	7	0	2289.4	4576.3	0	4576.3	0	0.00060334
28.5	6.85e+05	2.1481	3.1405e-05	0.01171	18.713	0.14443	0.0027497	7.3403	0	0	0	0	0	11425	1123	1071.3	303.87	0	0	0	0.00051658	-0	7	0	2289.4	4576.3	0	4576.3	0	0.00060334
29	6.29e+05	2.1486	3.1405e-05	0.01171	18.713	0.14442	0.0027497	7.3402	0	0	0	0	0	11425	1123	1071.3	303.87	0	0	0	0.00051658	-0	7	0	2289.4	4576.3	0	4576.3	0	0.00060333
29.5	5.73e+05	2.1492	3.1404e-05	0.01171	18.713	0.14442	0.0027497	7.3402	0	0	0	0	0	11425	1123	1071.3	303.87	0	0	0	0.00051657	-0	7	0	2289.4	4576.3	0	4576.3	0	0.00060333
30	5.24e+05	2.1499	3.1404e-05	0.01171	18.713	0.14442	0.0027496	7.3401	0	0	0	0	0	11425	1123	1071.3	303.87	0	0	0	0.00051657	-0	7	0	2289.4	4576.3	0	4576.3	0	0.00060332
30.5	4.75e+05	2.1506	3.1403e-05	0.01171	18.713	0.14442	0.0027496	7.3401	0	0	0	0	0	11425	1123	1071.3	303.87	0	0	0	0.00051657	-0	7	0	2289.4	4576.3	0	4576.3	0	0.00060332
31	4.4e+05	2.1515	3.1403e-05	0.01171	18.713	0.14442	0.0027496	7.3401	0	0	0	0	0	11425	1123	1071.3	303.87	0	0	0	0.00051657	-0	7	0	2289.4	4576.3	0	4576.3	0	0.00060332
31.5	4.05e+05	2.1524	3.1402e-05	0.01171	18.713	0.14441	0.0027495	7.34	0	0	0	0	0	11425	1123	1071.3	303.87	0	0	0	0.00051657	-0	7	0	2289.4	4576.3	0	4576.3	0	0.00060331
32	3.67e+05	2.1535	3.1402e-05	0.01171	18.713	0.14441	0.0027495	7.34	0	0	0	0	0	11425	1123	1071.3	303.87	0	0	0	0.00051657	-0	7	0	2289.4	4576.3	0	4576.3	0	0.00060331
32.5	3.28e+05	2.1546	3.1401e-05	0.01171	18.713	0.1444	0.0027494	7.3399	0	0	0	0	0	11425	1123	1071.3	303.88	0	0	0	0.00051657	-0	7	0	2289.4	4576.3	0	4576.3	0	0.00060331
33	2.98e+05	2.1559	3.14e-05	0.01171	18.713	0.1444	0.0027494	7.3399	0	0	0	0	0	11425	1123	1071.3	303.88	0	0	0	0.00051656	-0	7	0	2289.4	4576.3	0	4576.3	0	0.00060331
33.5	2.68e+05	2.1574	3.1399e-05	0.01171	18.713	0.14439	0.0027493	7.3399	0	0	0	0	0	11425	1123	1071.3	303.88	0	0	0	0.00051656	-0	7	0	2289.4	4576.3	0	4576.3	0	0.0006033
34	2.36e+05	2.159	3.1398e-05	0.01171	18.713	0.14439	0.0027493	7.3398	0	0	0	0	0	11425	1123	1071.3	303.88	0	0	0	0.00051656	-0	7	0	2289.4	4576.3	0	4576.3	0	0.0006033
34.5	2.03e+05	2.1606	3.1398e-05	0.01171	18.713	0.14438	0.0027492	7.3398	0	0	0	0	0	11424	1123	1071.3	303.88	0	0	0	0.00051656	-0	7	0	2289.4	4576.3	0	4576.3	0	0.0006033
35	1.77e+05	2.1625	3.1397e-05	0.011711	18.713	0.14437	0.0027491	7.3397	0	0	0	0	0	11424	1123	1071.3	303.88	0	0	0	0.00051656	-0	7	0	2289.4	4576.3	0	4576.3	0	0.00060329
35.5	1.5e+05	2.1644	3.1396e-05	0.011711	18.713	0.14437	0.0027491	7.3397	0	0	0	0	0	11424	1123	1071.3	303.88	0	0	0	0.00051656	-0	7	0	2289.4	4576.3	0	4576.3	0	0.00060329
36	1.27e+05	2.1669	3.1394e-05	0.011711	18.713	0.14436	0.002749	7.3396	0	0	0	0	0	11424	1123	1071.3	303.88	0	0	0	0.00051657	-0	7	0	2289.4	4576.3	0	4576.3	0	0.00060328
36.5	1.03e+05	2.169	3.1393e-05	0.011711	18.713	0.14435	0.0027489	7.3396	0	0	0	0	0	11424	1123	1071.3	303.88	0	0	0	0.00051658	-0	7	0	2289.4	4576.3	0	4576.3	0	0.00060328
37	85250	2.172	3.1392e-05	0.011711	18.713	0.14434	0.0027488	7.3395	0	0	0	0	0	11424	1123	1071.3	303.88	0	0	0	0.00051659	-0	7	0	2289.4	4576.3	0	4576.3	0	0.00060327
37.5	67500	2.1771	3.1389e-05	0.011711	18.712	0.14432	0.0027486	7.3394	0	0	0	0	0	11423	1123	1071.3	303.88	0	0	0	0.00051662	-0	7	0	2289.4	4576.3	0	4576.3	0	0.00060326
38	47500	2.1802	3.1388e-05	0.011711	18.712	0.1443	0.0027485	7.3393	0	0	0	0	0	11423	1123	1071.3	303.88	0	0	0	0.00051665	-0	7	0	2289.4	4576.3	0	4576.3	0	0.00060326
38.5	27500	2.1834	3.1386e-05	0.011711	18.712	0.1443	0.0027484	7.3392	0	0	0	0	0	11422	1123	1071.3	303.88	0	0	0	0.00051671	-0	7	0	2289.4	4576.3	0	4576.3	0	0.00060325
39	22500	2.1864	3.1385e-05	0.011711	18.711	0.14429	0.0027483	7.3391	0	0	0	0	0	11421	1123	1071.3	303.88	0	0	0	0.00051679	-0	7	0	2289.4	4576.3	0	4576.3	0	0.00060324
39.5	17500	2.1943	3.1381e-05	0.011711	18.709	0.14425	0.0027481	7.3388	0	0	0	0	0	11417	1123	1071.3	303.88	0	0	0	0.00051707	-0	7	0	2289.4	4576.3	0	4576.3	0	0.00060322
40	10000	2.2079	3.1375e-05	0.011711	18.701	0.14419	0.0027477	7.3383	0	0	0	0	0	11407	1123	1071.3	303.89	0	0	0	0.00051798	-0	7	0	2289.4	4576.3	0	4576.3	0	0.00060317
40.5	2500	2.2227	3.1369e-05	0.011711	18.012	0.13291	0.0027473	7.1431	0	0	0	0	0	10193	1123	1197.5	460.7	0	0	0	2.0696	-0	7	0	2301.4	4576.3	0	4576.3	0	0.0006031
41	0	2.2227	3.1369e-05	0.011711	18.012	0.13291	0.0027473	7.1431	0	0	0	0	0	10193	1123	1197.5	460.7	0	0	0	2.0696	-0	7	0	2301.4	4576.3	0	4576.3	0	0.0006031
