skip 
 Z (m)	  Az (m2)	 Tz (deg C)	  Cz(mg/m3)	  Sz (kg/m3)	  TPz (mg/m3)	 DOPz (mg/m3)	    Chlaz (mg/m3)	   DOCz (mg/m3)	    TPz_sed (mg/m3)	 Chlaz_sed (mg/m3)	   Fvol_IM (m3/m3, dry w.)	 Hice (m)	 Hsnow (m)	 O2z (mg/m3)	 DICz (mg/m3)	 NO3z (mg/m3)	 NH4z (mg/m3)	 SO4z (mg/m3)	 HSz (mg/m3)	 H2Sz (mg/m3)	 Fe2z (mg/m3)	 Ca2z (mg/m3)	 pHz (mg/m3)	 CH4z (mg/m3)	 Fe3z (mg/m3)	 Al3z (mg/m3)	 SiO4z (mg/m3)	 SiO2z (mg/m3)	 diatomz (mg/m3)	 POCz (mg/m3)
0	2.38e+07	0	0.64101	0.027735	29.603	0.53832	0.010265	1.6144	0	0	0	0	0	11935	1161.6	532.49	313.94	0	0	0	0.0030579	-0	7	0	1844	4251.8	0	0	0	12.914
0.5	2.27e+07	0.76434	0.73748	0.025415	26.809	0.14948	0.0060292	0.86337	0	0	0	0	0	11717	1142.6	567.8	328.91	0	0	0	0.001542	-0	7	0	1883.8	4343.6	0	0	0	10.804
1	2.16e+07	1.7204	0.75236	0.024992	26.076	0.010434	0.0049951	0.71312	0	0	0	0	0	11601	1131.5	588.38	336.66	0	0	0	0.0010141	-0	7	0	1902.2	4386	0	0	0	9.594
1.5	2.04e+07	1.7818	0.73651	0.024983	26.059	0.010384	0.0049268	0.70677	0	0	0	0	0	11588	1130.4	589.41	336.66	0	0	0	0.0010161	-0	7	0	1902.2	4386	0	0	0	9.5935
2	1.93e+07	1.8477	0.72586	0.024977	26.044	0.010335	0.0048653	0.69902	0	0	0	0	0	11573	1129.3	590.06	336.67	0	0	0	0.001018	-0	7	0	1902.2	4386	0	0	0	9.5931
2.5	1.82e+07	1.903	0.71893	0.024976	26.033	0.010293	0.0048192	0.69183	0	0	0	0	0	11560	1128.2	590.45	336.67	0	0	0	0.0010194	-0	7	0	1902.2	4386	0	0	0	9.5927
3	1.72e+07	1.9523	0.7143	0.024977	26.026	0.010257	0.0047829	0.68493	0	0	0	0	0	11548	1127.2	590.69	336.67	0	0	0	0.0010205	-0	7	0	1902.2	4386	0	0	0	9.5924
3.5	1.61e+07	1.99	0.71126	0.02498	26.022	0.010227	0.0047579	0.67935	0	0	0	0	0	11539	1126.4	590.83	336.68	0	0	0	0.0010213	-0	7	0	1902.2	4386	0	0	0	9.5921
4	1.52e+07	2.0254	0.70913	0.024985	26.019	0.0102	0.0047374	0.67389	0	0	0	0	0	11530	1125.7	590.91	336.68	0	0	0	0.0010219	-0	7	0	1902.2	4386	0	0	0	9.5918
4.5	1.42e+07	2.0482	0.70782	0.024989	26.018	0.010181	0.0047255	0.67026	0	0	0	0	0	11524	1125.2	590.96	336.68	0	0	0	0.0010222	-0	7	0	1902.2	4386	0	0	0	9.5917
5	1.36e+07	2.0733	0.7068	0.024995	26.018	0.010162	0.0047142	0.66618	0	0	0	0	0	11518	1124.6	590.99	336.68	0	0	0	0.0010226	-0	7	0	1902.2	4386	0	0	0	9.5915
5.5	1.29e+07	2.092	0.70613	0.025	26.019	0.010147	0.0047069	0.6631	0	0	0	0	0	11513	1124.2	591.01	336.68	0	0	0	0.0010229	-0	7	0	1902.2	4386	0	0	0	9.5913
6	1.23e+07	2.1102	0.70562	0.025006	26.02	0.010133	0.0047009	0.66008	0	0	0	0	0	11508	1123.7	591.02	336.68	0	0	0	0.0010232	-0	7	0	1902.2	4386	0	0	0	9.5912
6.5	1.16e+07	2.1216	0.70532	0.02501	26.021	0.010123	0.0046976	0.65819	0	0	0	0	0	11505	1123.4	591.03	336.68	0	0	0	0.0010234	-0	7	0	1902.2	4386	0	0	0	9.5911
7	1.11e+07	2.135	0.70506	0.025015	26.022	0.010112	0.0046945	0.65595	0	0	0	0	0	11501	1123.1	591.03	336.68	0	0	0	0.0010236	-0	7	0	1902.2	4386	0	0	0	9.591
7.5	1.05e+07	2.1444	0.70489	0.025019	26.023	0.010105	0.0046927	0.65439	0	0	0	0	0	11498	1122.9	591.04	336.68	0	0	0	0.0010238	-0	7	0	1902.2	4386	0	0	0	9.5909
8	9.97e+06	2.1535	0.70476	0.025023	26.024	0.010097	0.0046913	0.65289	0	0	0	0	0	11495	1122.6	591.04	336.68	0	0	0	0.0010239	-0	7	0	1902.2	4386	0	0	0	9.5909
8.5	9.43e+06	2.1608	0.70467	0.025026	26.026	0.010091	0.0046905	0.65169	0	0	0	0	0	11493	1122.4	591.04	336.68	0	0	0	0.0010241	-0	7	0	1902.2	4386	0	0	0	9.5908
9	8.93e+06	2.1674	0.7046	0.02503	26.027	0.010086	0.00469	0.65059	0	0	0	0	0	11491	1122.3	591.04	336.68	0	0	0	0.0010242	-0	7	0	1902.2	4386	0	0	0	9.5907
9.5	8.43e+06	2.1734	0.70455	0.025033	26.028	0.010081	0.0046897	0.64961	0	0	0	0	0	11489	1122.1	591.04	336.68	0	0	0	0.0010243	-0	7	0	1902.2	4386	0	0	0	9.5907
10	7.96e+06	2.1788	0.70452	0.025036	26.029	0.010076	0.0046896	0.64873	0	0	0	0	0	11488	1122	591.04	336.68	0	0	0	0.0010244	-0	7	0	1902.2	4386	0	0	0	9.5907
10.5	7.48e+06	2.1836	0.70449	0.025038	26.03	0.010074	0.0046896	0.64794	0	0	0	0	0	11486	1121.8	591.04	336.68	0	0	0	0.0010245	-0	7	0	1902.2	4386	0	0	0	9.5906
11	7.14e+06	2.1879	0.70447	0.025041	26.031	0.01007	0.0046897	0.64723	0	0	0	0	0	11485	1121.7	591.04	336.68	0	0	0	0.0010246	-0	7	0	1902.2	4386	0	0	0	9.5906
11.5	6.79e+06	2.1919	0.70446	0.025043	26.032	0.010067	0.0046899	0.64661	0	0	0	0	0	11484	1121.6	591.04	336.68	0	0	0	0.0010247	-0	7	0	1902.2	4386	0	0	0	9.5906
12	6.41e+06	2.1954	0.70445	0.025045	26.033	0.010064	0.0046902	0.64604	0	0	0	0	0	11483	1121.5	591.04	336.68	0	0	0	0.0010248	-0	7	0	1902.2	4386	0	0	0	9.5905
12.5	6.03e+06	2.1986	0.70444	0.025047	26.034	0.010062	0.0046905	0.64554	0	0	0	0	0	11482	1121.4	591.04	336.68	0	0	0	0.0010249	-0	7	0	1902.2	4386	0	0	0	9.5905
13	5.69e+06	2.2014	0.70444	0.025049	26.034	0.010059	0.0046908	0.64509	0	0	0	0	0	11481	1121.4	591.04	336.68	0	0	0	0.001025	-0	7	0	1902.2	4386	0	0	0	9.5905
13.5	5.34e+06	2.204	0.70444	0.02505	26.035	0.010058	0.0046912	0.64469	0	0	0	0	0	11480	1121.3	591.04	336.68	0	0	0	0.001025	-0	7	0	1902.2	4386	0	0	0	9.5905
14	5.05e+06	2.2063	0.70444	0.025052	26.036	0.010056	0.0046915	0.64433	0	0	0	0	0	11479	1121.2	591.04	336.68	0	0	0	0.0010251	-0	7	0	1902.2	4386	0	0	0	9.5905
14.5	4.75e+06	2.2084	0.70445	0.025053	26.036	0.010054	0.0046919	0.64401	0	0	0	0	0	11479	1121.2	591.04	336.68	0	0	0	0.0010252	-0	7	0	1902.2	4386	0	0	0	9.5904
15	4.46e+06	2.2102	0.70445	0.025054	26.037	0.010053	0.0046922	0.64373	0	0	0	0	0	11478	1121.1	591.04	336.68	0	0	0	0.0010252	-0	7	0	1902.2	4386	0	0	0	9.5904
15.5	4.16e+06	2.2119	0.70446	0.025055	26.037	0.010052	0.0046925	0.64347	0	0	0	0	0	11478	1121.1	591.04	336.68	0	0	0	0.0010253	-0	7	0	1902.2	4386	0	0	0	9.5904
16	3.9e+06	2.2133	0.70446	0.025056	26.038	0.010051	0.0046928	0.64324	0	0	0	0	0	11477	1121	591.04	336.68	0	0	0	0.0010253	-0	7	0	1902.2	4386	0	0	0	9.5904
16.5	3.63e+06	2.2147	0.70447	0.025057	26.038	0.01005	0.0046931	0.64304	0	0	0	0	0	11477	1121	591.04	336.68	0	0	0	0.0010253	-0	7	0	1902.2	4386	0	0	0	9.5904
17	3.43e+06	2.2158	0.70447	0.025058	26.039	0.010049	0.0046934	0.64286	0	0	0	0	0	11476	1121	591.04	336.68	0	0	0	0.0010254	-0	7	0	1902.2	4386	0	0	0	9.5904
17.5	3.22e+06	2.2169	0.70448	0.025059	26.039	0.010048	0.0046937	0.6427	0	0	0	0	0	11476	1120.9	591.04	336.68	0	0	0	0.0010254	-0	7	0	1902.2	4386	0	0	0	9.5904
18	3.03e+06	2.2178	0.70448	0.025059	26.039	0.010048	0.0046939	0.64255	0	0	0	0	0	11476	1120.9	591.04	336.68	0	0	0	0.0010254	-0	7	0	1902.2	4386	0	0	0	9.5904
18.5	2.84e+06	2.2187	0.70449	0.02506	26.039	0.010047	0.0046942	0.64243	0	0	0	0	0	11476	1120.9	591.04	336.68	0	0	0	0.0010255	-0	7	0	1902.2	4386	0	0	0	9.5904
19	2.65e+06	2.2195	0.70449	0.025061	26.04	0.010046	0.0046944	0.64231	0	0	0	0	0	11475	1120.9	591.04	336.68	0	0	0	0.0010255	-0	7	0	1902.2	4386	0	0	0	9.5904
19.5	2.46e+06	2.2202	0.70449	0.025061	26.04	0.010046	0.0046946	0.64221	0	0	0	0	0	11475	1120.8	591.04	336.68	0	0	0	0.0010255	-0	7	0	1902.2	4386	0	0	0	9.5904
20	2.32e+06	2.2208	0.7045	0.025061	26.04	0.010046	0.0046947	0.64212	0	0	0	0	0	11475	1120.8	591.04	336.68	0	0	0	0.0010255	-0	7	0	1902.2	4386	0	0	0	9.5904
20.5	2.17e+06	2.2213	0.7045	0.025062	26.04	0.010045	0.0046949	0.64204	0	0	0	0	0	11475	1120.8	591.04	336.68	0	0	0	0.0010255	-0	7	0	1902.2	4386	0	0	0	9.5904
21	2.04e+06	2.2219	0.7045	0.025062	26.04	0.010045	0.0046951	0.64197	0	0	0	0	0	11475	1120.8	591.04	336.68	0	0	0	0.0010256	-0	7	0	1902.2	4386	0	0	0	9.5904
21.5	1.9e+06	2.2223	0.70451	0.025063	26.041	0.010044	0.0046952	0.64191	0	0	0	0	0	11474	1120.8	591.04	336.68	0	0	0	0.0010256	-0	7	0	1902.2	4386	0	0	0	9.5903
22	1.78e+06	2.2228	0.70451	0.025063	26.041	0.010044	0.0046953	0.64185	0	0	0	0	0	11474	1120.8	591.04	336.68	0	0	0	0.0010256	-0	7	0	1902.2	4386	0	0	0	9.5903
22.5	1.65e+06	2.2232	0.70451	0.025063	26.041	0.010044	0.0046954	0.6418	0	0	0	0	0	11474	1120.8	591.04	336.68	0	0	0	0.0010256	-0	7	0	1902.2	4386	0	0	0	9.5903
23	1.57e+06	2.2237	0.70451	0.025063	26.041	0.010044	0.0046955	0.64176	0	0	0	0	0	11474	1120.8	591.04	336.68	0	0	0	0.0010256	-0	7	0	1902.2	4386	0	0	0	9.5903
23.5	1.48e+06	2.2241	0.70452	0.025063	26.041	0.010043	0.0046956	0.64172	0	0	0	0	0	11474	1120.7	591.04	336.68	0	0	0	0.0010256	-0	7	0	1902.2	4386	0	0	0	9.5903
24	1.38e+06	2.2246	0.70452	0.025064	26.041	0.010043	0.0046957	0.64168	0	0	0	0	0	11474	1120.7	591.04	336.68	0	0	0	0.0010257	-0	7	0	1902.2	4386	0	0	0	9.5903
24.5	1.27e+06	2.225	0.70452	0.025064	26.041	0.010042	0.0046958	0.64165	0	0	0	0	0	11474	1120.7	591.04	336.68	0	0	0	0.0010257	-0	7	0	1902.2	4386	0	0	0	9.5903
25	1.19e+06	2.2254	0.70452	0.025064	26.041	0.010042	0.0046958	0.64162	0	0	0	0	0	11474	1120.7	591.04	336.68	0	0	0	0.0010257	-0	7	0	1902.2	4386	0	0	0	9.5903
25.5	1.11e+06	2.2259	0.70452	0.025064	26.041	0.010042	0.0046959	0.6416	0	0	0	0	0	11474	1120.7	591.04	336.68	0	0	0	0.0010257	-0	7	0	1902.2	4386	0	0	0	9.5903
26	1.03e+06	2.2263	0.70452	0.025064	26.041	0.010042	0.004696	0.64158	0	0	0	0	0	11474	1120.7	591.04	336.68	0	0	0	0.0010258	-0	7	0	1902.2	4386	0	0	0	9.5903
26.5	9.58e+05	2.2268	0.70452	0.025064	26.041	0.010041	0.004696	0.64156	0	0	0	0	0	11474	1120.7	591.04	336.68	0	0	0	0.0010258	-0	7	0	1902.2	4386	0	0	0	9.5903
27	8.88e+05	2.2273	0.70452	0.025064	26.041	0.010041	0.004696	0.64154	0	0	0	0	0	11474	1120.7	591.04	336.68	0	0	0	0.0010258	-0	7	0	1902.2	4386	0	0	0	9.5903
27.5	8.18e+05	2.2278	0.70452	0.025064	26.041	0.01004	0.0046961	0.64152	0	0	0	0	0	11474	1120.7	591.04	336.68	0	0	0	0.0010259	-0	7	0	1902.2	4386	0	0	0	9.5903
28	7.52e+05	2.2283	0.70452	0.025065	26.042	0.01004	0.0046961	0.64151	0	0	0	0	0	11474	1120.7	591.04	336.68	0	0	0	0.0010259	-0	7	0	1902.2	4386	0	0	0	9.5903
28.5	6.85e+05	2.2289	0.70452	0.025065	26.042	0.010039	0.0046961	0.64149	0	0	0	0	0	11474	1120.7	591.04	336.68	0	0	0	0.0010259	-0	7	0	1902.2	4386	0	0	0	9.5903
29	6.29e+05	2.2294	0.70452	0.025065	26.042	0.010039	0.0046961	0.64148	0	0	0	0	0	11474	1120.7	591.04	336.68	0	0	0	0.0010259	-0	7	0	1902.2	4386	0	0	0	9.5903
29.5	5.73e+05	2.23	0.70452	0.025065	26.042	0.010038	0.0046962	0.64147	0	0	0	0	0	11474	1120.7	591.04	336.68	0	0	0	0.001026	-0	7	0	1902.2	4386	0	0	0	9.5903
30	5.24e+05	2.2306	0.70452	0.025065	26.042	0.010038	0.0046962	0.64146	0	0	0	0	0	11474	1120.7	591.04	336.68	0	0	0	0.001026	-0	7	0	1902.2	4386	0	0	0	9.5903
30.5	4.75e+05	2.2312	0.70452	0.025065	26.042	0.010038	0.0046962	0.64145	0	0	0	0	0	11474	1120.7	591.04	336.68	0	0	0	0.0010261	-0	7	0	1902.2	4386	0	0	0	9.5903
31	4.4e+05	2.232	0.70452	0.025065	26.042	0.010037	0.0046962	0.64144	0	0	0	0	0	11474	1120.7	591.04	336.68	0	0	0	0.0010261	-0	7	0	1902.2	4386	0	0	0	9.5903
31.5	4.05e+05	2.2328	0.70452	0.025065	26.042	0.010036	0.0046962	0.64143	0	0	0	0	0	11474	1120.7	591.04	336.68	0	0	0	0.0010262	-0	7	0	1902.2	4386	0	0	0	9.5903
32	3.67e+05	2.2337	0.70452	0.025065	26.042	0.010035	0.0046962	0.64142	0	0	0	0	0	11474	1120.7	591.04	336.68	0	0	0	0.0010262	-0	7	0	1902.2	4386	0	0	0	9.5903
32.5	3.28e+05	2.2347	0.70451	0.025065	26.042	0.010035	0.0046961	0.64141	0	0	0	0	0	11474	1120.7	591.04	336.68	0	0	0	0.0010263	-0	7	0	1902.2	4386	0	0	0	9.5903
33	2.98e+05	2.2358	0.70451	0.025065	26.042	0.010033	0.0046961	0.6414	0	0	0	0	0	11474	1120.7	591.04	336.68	0	0	0	0.0010264	-0	7	0	1902.2	4386	0	0	0	9.5902
33.5	2.68e+05	2.2371	0.70451	0.025065	26.042	0.010032	0.0046961	0.6414	0	0	0	0	0	11473	1120.7	591.04	336.68	0	0	0	0.0010264	-0	7	0	1902.2	4386	0	0	0	9.5902
34	2.36e+05	2.2384	0.70451	0.025065	26.042	0.010031	0.0046961	0.64139	0	0	0	0	0	11473	1120.7	591.04	336.69	0	0	0	0.0010265	-0	7	0	1902.2	4386	0	0	0	9.5902
34.5	2.03e+05	2.2398	0.7045	0.025065	26.042	0.01003	0.0046961	0.64138	0	0	0	0	0	11473	1120.7	591.04	336.69	0	0	0	0.0010266	-0	7	0	1902.2	4386	0	0	0	9.5902
35	1.77e+05	2.2414	0.7045	0.025065	26.042	0.010028	0.004696	0.64137	0	0	0	0	0	11473	1120.7	591.04	336.69	0	0	0	0.0010267	-0	7	0	1902.2	4386	0	0	0	9.5902
35.5	1.5e+05	2.243	0.70449	0.025065	26.042	0.010027	0.004696	0.64136	0	0	0	0	0	11473	1120.7	591.04	336.69	0	0	0	0.0010268	-0	7	0	1902.2	4386	0	0	0	9.5902
36	1.27e+05	2.2452	0.70449	0.025065	26.042	0.010025	0.004696	0.64135	0	0	0	0	0	11473	1120.7	591.04	336.69	0	0	0	0.001027	-0	7	0	1902.2	4386	0	0	0	9.5902
36.5	1.03e+05	2.2471	0.70449	0.025065	26.041	0.010024	0.0046959	0.64134	0	0	0	0	0	11473	1120.7	591.04	336.69	0	0	0	0.0010271	-0	7	0	1902.2	4386	0	0	0	9.5902
37	85250	2.2497	0.70448	0.025065	26.041	0.010021	0.0046959	0.64133	0	0	0	0	0	11473	1120.7	591.04	336.69	0	0	0	0.0010273	-0	7	0	1902.2	4386	0	0	0	9.5901
37.5	67500	2.254	0.70447	0.025065	26.041	0.010017	0.0046958	0.64131	0	0	0	0	0	11474	1120.7	591.04	336.69	0	0	0	0.0010275	-0	7	0	1902.2	4386	0	0	0	9.5901
38	47500	2.2567	0.70446	0.025065	26.041	0.010013	0.0046957	0.64129	0	0	0	0	0	11474	1120.7	591.04	336.69	0	0	0	0.0010277	-0	7	0	1902.2	4386	0	0	0	9.5901
38.5	27500	2.2597	0.70446	0.025065	26.04	0.010012	0.0046956	0.64128	0	0	0	0	0	11474	1120.7	591.04	336.69	0	0	0	0.0010279	-0	7	0	1902.2	4386	0	0	0	9.59
39	22500	2.2625	0.70445	0.025065	26.04	0.01001	0.0046956	0.64127	0	0	0	0	0	11474	1120.7	591.04	336.69	0	0	0	0.0010281	-0	7	0	1902.2	4386	0	0	0	9.59
39.5	17500	2.2693	0.70444	0.025065	26.038	0.010002	0.0046954	0.64124	0	0	0	0	0	11474	1120.7	591.04	336.69	0	0	0	0.0010285	-0	7	0	1902.2	4386	0	0	0	9.5899
40	10000	2.2812	0.70441	0.025065	26.033	0.0099892	0.0046952	0.64119	0	0	0	0	0	11475	1120.7	591.05	336.69	0	0	0	0.0010291	-0	7	0	1902.2	4386	0	0	0	9.5898
40.5	2500	2.2942	0.70439	0.025065	25.548	0.009422	0.0046949	0.63724	0	0	0	0	0	11539	1120.7	625.26	350.51	0	0	0	0.0023861	-0	7	0	1902.2	4386	0	0	0	9.5897
41	0	2.2942	0.70439	0.025065	25.548	0.009422	0.0046949	0.63724	0	0	0	0	0	11539	1120.7	625.26	350.51	0	0	0	0.0023861	-0	7	0	1902.2	4386	0	0	0	9.5897
